timestamp,ppg,label,stage,hand
1581952270585,2097170,0,1,0
1581952270666,3698612,0,1,0
1581952270764,3703076,0,1,0
1581952270863,3703054,0,1,0
1581952270965,1521949,0,1,0
1581952271065,1181058,0,1,0
1581952271166,1174957,0,1,0
1581952271264,1836241,0,1,0
1581952271377,1849398,0,1,0
1581952271465,2140243,0,1,0
1581952271566,2186638,0,1,0
1581952271665,2189728,0,1,0
1581952271765,2359630,0,1,0
1581952271865,2366207,0,1,0
1581952271965,2436807,0,1,0
1581952272065,2443434,0,1,0
1581952272165,2731186,0,1,0
1581952272265,2772134,0,1,0
1581952272366,2770447,0,1,0
1581952272465,2766592,0,1,0
1581952272565,2764136,0,1,0
1581952272665,2757837,0,1,0
1581952272766,2755545,0,1,0
1581952272866,2747585,0,1,0
1581952272965,2736961,0,1,0
1581952273066,2727442,0,1,0
1581952273166,2720245,0,1,0
1581952273266,2711867,0,1,0
1581952273371,2713380,0,1,0
1581952273465,2710702,0,1,0
1581952273566,2707965,0,1,0
1581952273666,2705150,0,1,0
1581952273768,2701043,0,1,0
1581952273871,2696725,0,1,0
1581952273967,2691827,0,1,0
1581952274067,2691426,0,1,0
1581952274167,2690384,0,1,0
1581952274269,2688252,0,1,0
1581952274367,2686190,0,1,0
1581952274466,2683544,0,1,0
1581952274567,2681874,0,1,0
1581952274667,2680695,0,1,0
1581952274769,2679671,0,1,0
1581952274867,2678127,0,1,0
1581952274968,2676449,0,1,0
1581952275067,2674564,0,1,0
1581952275167,2672661,0,1,0
1581952275267,2671093,0,1,0
1581952275366,2669720,0,1,0
1581952275465,2670402,0,1,0
1581952275566,2667531,0,1,0
1581952275666,2668742,0,1,0
1581952275766,2677609,0,1,0
1581952275867,2679077,0,1,0
1581952275967,2680651,0,1,0
1581952276067,2681927,0,1,0
1581952276167,2684093,0,1,0
1581952276267,2683407,0,1,0
1581952276367,2682592,0,1,0
1581952276466,2681142,0,1,0
1581952276567,2679852,0,1,0
1581952276667,2679327,0,1,0
1581952276771,2678538,0,1,0
1581952276869,2676860,0,1,0
1581952276969,2676169,0,1,0
1581952277069,2676727,0,1,0
1581952277169,2675780,0,1,0
1581952277269,2675356,0,1,0
1581952277369,2674615,0,1,0
1581952277468,2675520,0,1,0
1581952277569,2674420,0,1,0
1581952277669,2673225,0,1,0
1581952277769,2673380,0,1,0
1581952277869,2673711,0,1,0
1581952277969,2674756,0,1,0
1581952278069,2675865,0,1,0
1581952278169,2676982,0,1,0
1581952278269,2678507,0,1,0
1581952278369,2679975,0,1,0
1581952278468,2680272,0,1,0
1581952278569,2680255,0,1,0
1581952278669,2681712,0,1,0
1581952278769,2682102,0,1,0
1581952278869,2682007,0,1,0
1581952278969,2682319,0,1,0
1581952279069,2682577,0,1,0
1581952279170,2682877,0,1,0
1581952279270,2682646,0,1,0
1581952279370,2683244,0,1,0
1581952279471,2683571,0,1,0
1581952279572,2684135,0,1,0
1581952279671,2685209,0,1,0
1581952279772,2684890,0,1,0
1581952279872,2683486,0,1,0
1581952279972,2682693,0,1,0
1581952280072,2683959,0,1,0
1581952280172,2685062,0,1,0
1581952280272,2684956,0,1,0
1581952280371,2686399,0,1,0
1581952280470,2687983,0,1,0
1581952280570,2688432,0,1,0
1581952280671,2689630,0,1,0
1581952280771,2690012,0,1,0
1581952280871,2689929,0,1,0
1581952280971,2690692,0,1,0
1581952281071,2691319,0,1,0
1581952281171,2692038,0,1,0
1581952281271,2692688,0,1,0
1581952281371,2692421,0,1,0
1581952281470,2691333,0,1,0
1581952281571,2691231,0,1,0
1581952281672,2690923,0,1,0
1581952281771,2690293,0,1,0
1581952281871,2690716,0,1,0
1581952281971,2689788,0,1,0
1581952282071,2690241,0,1,0
1581952282171,2689504,0,1,0
1581952282272,2688846,0,1,0
1581952282372,2687525,0,1,0
1581952282471,2687330,0,1,0
1581952282661,2686454,0,1,0
1581952282675,2685949,0,1,0
1581952282773,2685188,0,1,0
1581952282873,2683607,0,1,0
1581952282974,2682418,0,1,0
1581952283074,2680848,0,1,0
1581952283174,2679655,0,1,0
1581952283273,2678344,0,1,0
1581952283372,2677966,0,1,0
1581952283472,2677082,0,1,0
1581952283572,2675452,0,1,0
1581952283673,2673099,0,1,0
1581952283773,2671415,0,1,0
1581952283872,2669830,0,1,0
1581952283972,2668205,0,1,0
1581952284071,2667385,0,1,0
1581952284171,2666556,0,1,0
1581952284275,2665467,0,1,0
1581952284372,2664270,0,1,0
1581952284473,2662099,0,1,0
1581952284572,2660671,0,1,0
1581952284671,2658868,0,1,0
1581952284772,2657500,0,1,0
1581952284872,2656409,0,1,0
1581952284972,2655912,0,1,0
1581952285072,2655713,0,1,0
1581952285172,2655673,0,1,0
1581952285272,2654209,0,1,0
1581952285372,2652635,0,1,0
1581952285472,2651616,0,1,0
1581952285572,2650619,0,1,0
1581952285672,2649927,0,1,0
1581952285772,2650029,0,1,0
1581952285872,2649889,0,1,0
1581952285972,2649880,0,1,0
1581952286072,2649338,0,1,0
1581952286172,2648285,0,1,0
1581952286273,2647234,0,1,0
1581952286373,2646924,0,1,0
1581952286473,2646242,0,1,0
1581952286573,2645915,0,1,0
1581952286673,2645670,0,1,0
1581952286773,2645898,0,1,0
1581952286873,2645725,0,1,0
1581952286973,2644598,0,1,0
1581952287073,2643996,0,1,0
1581952287253,2643401,0,1,0
1581952287273,2642698,0,1,0
1581952287375,2642834,0,1,0
1581952287475,2643040,0,1,0
1581952287574,2643210,0,1,0
1581952287674,2643330,0,1,0
1581952287774,2642863,0,1,0
1581952287874,2642112,0,1,0
1581952287974,2642403,0,1,0
1581952288074,2641567,0,1,0
1581952288174,2641395,0,1,0
1581952288274,2641561,0,1,0
1581952288374,2642046,0,1,0
1581952288474,2642257,0,1,0
1581952288574,2642130,0,1,0
1581952288674,2641985,0,1,0
1581952288774,2642109,0,1,0
1581952288874,2642710,0,1,0
1581952288974,2643617,0,1,0
1581952289074,2644923,0,1,0
1581952289174,2647312,0,1,0
1581952289275,2650186,0,1,0
1581952289375,2645229,0,1,0
1581952289475,2643669,0,1,0
1581952289575,2645291,0,1,0
1581952289676,2644950,0,1,0
1581952289775,2646054,0,1,0
1581952289875,2647984,0,1,0
1581952289977,2649356,0,1,0
1581952290076,2648048,0,1,0
1581952290176,2648231,0,1,0
1581952290277,2649726,0,1,0
1581952290377,2650093,0,1,0
1581952290477,2651341,0,1,0
1581952290577,2650604,0,1,0
1581952290677,2650177,0,1,0
1581952290778,2650097,0,1,0
1581952290877,2649919,0,1,0
1581952290977,2650866,0,1,0
1581952291078,2649858,0,1,0
1581952291178,2647172,0,1,0
1581952291277,2646617,0,1,0
1581952291377,2646211,0,1,0
1581952291478,2645921,0,1,0
1581952291578,2645860,0,1,0
1581952291678,2646404,0,1,0
1581952291778,2645527,0,1,0
1581952291879,2645276,0,1,0
1581952291980,2644648,0,1,0
1581952292080,2644383,0,1,0
1581952292180,2645251,0,1,0
1581952292280,2645816,0,1,0
1581952292380,2645479,0,1,0
1581952292480,2645530,0,1,0
1581952292579,2645726,0,1,0
1581952292679,2646285,0,1,0
1581952292779,2646586,0,1,0
1581952292879,2647628,0,1,0
1581952292978,2648940,0,1,0
1581952293079,2649218,0,1,0
1581952293178,2648952,0,1,0
1581952293281,2649367,0,1,0
1581952293379,2649804,0,1,0
1581952293479,2650386,0,1,0
1581952293579,2651034,0,1,0
1581952293679,2652380,0,1,0
1581952293779,2652212,0,1,0
1581952293879,2651893,0,1,0
1581952293979,2651745,0,1,0
1581952294079,2651699,0,1,0
1581952294179,2652121,0,1,0
1581952294280,2652599,0,1,0
1581952294378,2653447,0,1,0
1581952294478,2653174,0,1,0
1581952294578,2653053,0,1,0
1581952294679,2652531,0,1,0
1581952294779,2652488,0,1,0
1581952294879,2652708,0,1,0
1581952294979,2653269,0,1,0
1581952295079,2654074,0,1,0
1581952295178,2654455,0,1,0
1581952295279,2654323,0,1,0
1581952295379,2653918,0,1,0
1581952295479,2653697,0,1,0
1581952295579,2654037,0,1,0
1581952295679,2654253,0,1,0
1581952295779,2654691,0,1,0
1581952295879,2655394,0,1,0
1581952295981,2656212,0,1,0
1581952296079,2656327,0,1,0
1581952296179,2656032,0,1,0
1581952296280,2656497,0,1,0
1581952296379,2656520,0,1,0
1581952296479,2656651,0,1,0
1581952296579,2656988,0,1,0
1581952296679,2658170,0,1,0
1581952296780,2659469,0,1,0
1581952296880,2659561,0,1,0
1581952296980,2659219,0,1,0
1581952297080,2659542,0,1,0
1581952297182,2660015,0,1,0
1581952297280,2660124,0,1,0
1581952297380,2660521,0,1,0
1581952297480,2661299,0,1,0
1581952297580,2661531,0,1,0
1581952297680,2660399,0,1,0
1581952297780,2660143,0,1,0
1581952297880,2659479,0,1,0
1581952297980,2659459,0,1,0
1581952298081,2659790,0,1,0
1581952298180,2659853,0,1,0
1581952298281,2659934,0,1,0
1581952298381,2659266,0,1,0
1581952298481,2658002,0,1,0
1581952298581,2657503,0,1,0
1581952298681,2657229,0,1,0
1581952298781,2657012,0,1,0
1581952298881,2657036,0,1,0
1581952298981,2657705,0,1,0
1581952299081,2656931,0,1,0
1581952299181,2655643,0,1,0
1581952299281,2656646,0,1,0
1581952299381,2656441,0,1,0
1581952299481,2654820,0,1,0
1581952299582,2653207,0,1,0
1581952299681,2652216,0,1,0
1581952299781,2650712,0,1,0
1581952299882,2649792,0,1,0
1581952299982,2648563,0,1,0
1581952300082,2646668,0,1,0
1581952300182,2646647,0,1,0
1581952300282,2647759,0,1,0
1581952300382,2648838,0,1,0
1581952300482,2648824,0,1,0
1581952300582,2648190,0,1,0
1581952300682,2647095,0,1,0
1581952300783,2647297,0,1,0
1581952300882,2646899,0,1,0
1581952300982,2647075,0,1,0
1581952301083,2647439,0,1,0
1581952301182,2647769,0,1,0
1581952301283,2648279,0,1,0
1581952301383,2647652,0,1,0
1581952301483,2646666,0,1,0
1581952301583,2645759,0,1,0
1581952301683,2645126,0,1,0
1581952301783,2644812,0,1,0
1581952301883,2644942,0,1,0
1581952301983,2645467,0,1,0
1581952302083,2645978,0,1,0
1581952302183,2646739,0,1,0
1581952302284,2646445,0,1,0
1581952302383,2645734,0,1,0
1581952302483,2645737,0,1,0
1581952302583,2645989,0,1,0
1581952302683,2645970,0,1,0
1581952302784,2646808,0,1,0
1581952302884,2647202,0,1,0
1581952302984,2648241,0,1,0
1581952303084,2648713,0,1,0
1581952303184,2648781,0,1,0
1581952303283,2648911,0,1,0
1581952303385,2649283,0,1,0
1581952303485,2649447,0,1,0
1581952303584,2650290,0,1,0
1581952303685,2651294,0,1,0
1581952303785,2652596,0,1,0
1581952303885,2653656,0,1,0
1581952303984,2653873,0,1,0
1581952304085,2653837,0,1,0
1581952304184,2654006,0,1,0
1581952304285,2654631,0,1,0
1581952304385,2655182,0,1,0
1581952304485,2655990,0,1,0
1581952304585,2656985,0,1,0
1581952304685,2657884,0,1,0
1581952304786,2657772,0,1,0
1581952304885,2657833,0,1,0
1581952304985,2658868,0,1,0
1581952305087,2659979,0,1,0
1581952305186,2661047,0,1,0
1581952305287,2661452,0,1,0
1581952305386,2662131,0,1,0
1581952305486,2661775,0,1,0
1581952305586,2661533,0,1,0
1581952305686,2661303,0,1,0
1581952305786,2661063,0,1,0
1581952305886,2660865,0,1,0
1581952305986,2661365,0,1,0
1581952306179,2661690,0,1,0
1581952306186,2661673,0,1,0
1581952306288,2661073,0,1,0
1581952306386,2660838,0,1,0
1581952306487,2660936,0,1,0
1581952306586,2660983,0,1,0
1581952306686,2660823,0,1,0
1581952306788,2661220,0,1,0
1581952306886,2662275,0,1,0
1581952306986,2662851,0,1,0
1581952307087,2663098,0,1,0
1581952307191,2663570,0,1,0
1581952307287,2664092,0,1,0
1581952307387,2664211,0,1,0
1581952307487,2665295,0,1,0
1581952307587,2665939,0,1,0
1581952307687,2666952,0,1,0
1581952307787,2667003,0,1,0
1581952307887,2666352,0,1,0
1581952307987,2666331,0,1,0
1581952308087,2666603,0,1,0
1581952308187,2666742,0,1,0
1581952308292,2667055,0,1,0
1581952308388,2667483,0,1,0
1581952308487,2667640,0,1,0
1581952308588,2666924,0,1,0
1581952308688,2666300,0,1,0
1581952308790,2666230,0,1,0
1581952308888,2666002,0,1,0
1581952308988,2665656,0,1,0
1581952309088,2665764,0,1,0
1581952309189,2666134,0,1,0
1581952309288,2666173,0,1,0
1581952309388,2665007,0,1,0
1581952309489,2663423,0,1,0
1581952309588,2662890,0,1,0
1581952309688,2662545,0,1,0
1581952309788,2662593,0,1,0
1581952309888,2662081,0,1,0
1581952309989,2664278,0,1,0
1581952310089,2665079,0,1,0
1581952310188,2663539,0,1,0
1581952310289,2660859,0,1,0
1581952310389,2660340,0,1,0
1581952310490,2661668,0,1,0
1581952310589,2661247,0,1,0
1581952310689,2659760,0,1,0
1581952310789,2658599,0,1,0
1581952310889,2657872,0,1,0
1581952310989,2656306,0,1,0
1581952311089,2653856,0,1,0
1581952311189,2652758,0,1,0
1581952311289,2652158,0,1,0
1581952311389,2651516,0,1,0
1581952311490,2651482,0,1,0
1581952311590,2651990,0,1,0
1581952311689,2652934,0,1,0
1581952311790,2653047,0,1,0
1581952311890,2651834,0,1,0
1581952311990,2651068,0,1,0
1581952312090,2650619,0,1,0
1581952312190,2650809,0,1,0
1581952312290,2650890,0,1,0
1581952312390,2650613,0,1,0
1581952312490,2650053,0,1,0
1581952312590,2649547,0,1,0
1581952312690,2649124,0,1,0
1581952312791,2649644,0,1,0
1581952312890,2649378,0,1,0
1581952312990,2648758,0,1,0
1581952313091,2649337,0,1,0
1581952313190,2649338,0,1,0
1581952313296,2649610,0,1,0
1581952313391,2649890,0,1,0
1581952313491,2648797,0,1,0
1581952313591,2647889,0,1,0
1581952313691,2647272,0,1,0
1581952313791,2646381,0,1,0
1581952313891,2646678,0,1,0
1581952313991,2646679,0,1,0
1581952314091,2646769,0,1,0
1581952314191,2647023,0,1,0
1581952314292,2648089,0,1,0
1581952314392,2644809,0,1,0
1581952314491,2641828,0,1,0
1581952314592,2646662,0,1,0
1581952314692,2647815,0,1,0
1581952314793,2647083,0,1,0
1581952314893,2646888,0,1,0
1581952314993,2647408,0,1,0
1581952315093,2647261,0,1,0
1581952315193,2646841,0,1,0
1581952315293,2647412,0,1,0
1581952315393,2647388,0,1,0
1581952315493,2647652,0,1,0
1581952315593,2647530,0,1,0
1581952315694,2646941,0,1,0
1581952315794,2647604,0,1,0
1581952315894,2647653,0,1,0
1581952315994,2647015,0,1,0
1581952316094,2647343,0,1,0
1581952316194,2647269,0,1,0
1581952316294,2647587,0,1,0
1581952316394,2648347,0,1,0
1581952316494,2648723,0,1,0
1581952316594,2649589,0,1,0
1581952316694,2649427,0,1,0
1581952316795,2648766,0,1,0
1581952316895,2648727,0,1,0
1581952316995,2648730,0,1,0
1581952317095,2648742,0,1,0
1581952317195,2649246,0,1,0
1581952317295,2649907,0,1,0
1581952317395,2650635,0,1,0
1581952317495,2651641,0,1,0
1581952317595,2651250,0,1,0
1581952317695,2651124,0,1,0
1581952317795,2651257,0,1,0
1581952317894,2651337,0,1,0
1581952317994,2651651,0,1,0
1581952318094,2652600,0,1,0
1581952318194,2653184,0,1,0
1581952318294,2654032,0,1,0
1581952318394,2654395,0,1,0
1581952318494,2654389,0,1,0
1581952318594,2654278,0,1,0
1581952318694,2654888,0,1,0
1581952318795,2655397,0,1,0
1581952318894,2656112,0,1,0
1581952318994,2656972,0,1,0
1581952319094,2658067,0,1,0
1581952319195,2658345,0,1,0
1581952319295,2658127,0,1,0
1581952319395,2658060,0,1,0
1581952319495,2658677,0,1,0
1581952319595,2658946,0,1,0
1581952319695,2659590,0,1,0
1581952319795,2660862,0,1,0
1581952319895,2661709,0,1,0
1581952319995,2662554,0,1,0
1581952320095,2662204,0,1,0
1581952320195,2662088,0,1,0
1581952320296,2662281,0,1,0
1581952320395,2662388,0,1,0
1581952320496,2663145,0,1,0
1581952320596,2663716,0,1,0
1581952320695,2664535,0,1,0
1581952320796,2665237,0,1,0
1581952320896,2666072,0,1,0
1581952320996,2665168,0,1,0
1581952321096,2664981,0,1,0
1581952321196,2664826,0,1,0
1581952321296,2664562,0,1,0
1581952321396,2664739,0,1,0
1581952321496,2665253,0,1,0
1581952321596,2665733,0,1,0
1581952321696,2666448,0,1,0
1581952321796,2667087,0,1,0
1581952321897,2666051,0,1,0
1581952321996,2665491,0,1,0
1581952322097,2665213,0,1,0
1581952322197,2665290,0,1,0
1581952322299,2665133,0,1,0
1581952322397,2665547,0,1,0
1581952322497,2665790,0,1,0
1581952322597,2666198,0,1,0
1581952322697,2665901,0,1,0
1581952322799,2665347,0,1,0
1581952322898,2665221,0,1,0
1581952322998,2665026,0,1,0
1581952323097,2665286,0,1,0
1581952323197,2665719,0,1,0
1581952323298,2666101,0,1,0
1581952323398,2666347,0,1,0
1581952323498,2665493,0,1,0
1581952323598,2665017,0,1,0
1581952323698,2664540,0,1,0
1581952323798,2664246,0,1,0
1581952323898,2664336,0,1,0
1581952323998,2664182,0,1,0
1581952324098,2664615,0,1,0
1581952324198,2664260,0,1,0
1581952324298,2662920,0,1,0
1581952324398,2661953,0,1,0
1581952324498,2661177,0,1,0
1581952324598,2660715,0,1,0
1581952324698,2660688,0,1,0
1581952324799,2661098,0,1,0
1581952324899,2661273,0,1,0
1581952324999,2661243,0,1,0
1581952325099,2660181,0,1,0
1581952325199,2658835,0,1,0
1581952325299,2658416,0,1,0
1581952325399,2657891,0,1,0
1581952325499,2657603,0,1,0
1581952325599,2657725,0,1,0
1581952325699,2658031,0,1,0
1581952325799,2658477,0,1,0
1581952325899,2658732,0,1,0
1581952325999,2657583,0,1,0
1581952326099,2657016,0,1,0
1581952326199,2656482,0,1,0
1581952326299,2656298,0,1,0
1581952326400,2656251,0,1,0
1581952326506,2656572,0,1,0
1581952326599,2656941,0,1,0
1581952326700,2657752,0,1,0
1581952326800,2658221,0,1,0
1581952326900,2657791,0,1,0
1581952327000,2657260,0,1,0
1581952327100,2657296,0,1,0
1581952327200,2657301,0,1,0
1581952327301,2657576,0,1,0
1581952327400,2657438,0,1,0
1581952327505,2658346,0,1,0
1581952327600,2659154,0,1,0
1581952327700,2659959,0,1,0
1581952327800,2659456,0,1,0
1581952327900,2659213,0,1,0
1581952328000,2659312,0,1,0
1581952328100,2659758,0,1,0
1581952328201,2660364,0,1,0
1581952328301,2661268,0,1,0
1581952328401,2662147,0,1,0
1581952328501,2663059,0,1,0
1581952328601,2663221,0,1,0
1581952328701,2662935,0,1,0
1581952328801,2663069,0,1,0
1581952328901,2663195,0,1,0
1581952329001,2662967,0,1,0
1581952329101,2663518,0,1,0
1581952329202,2665523,0,1,0
1581952329301,2666549,0,1,0
1581952329401,2667695,0,1,0
1581952329501,2667794,0,1,0
1581952329601,2667491,0,1,0
1581952329702,2667779,0,1,0
1581952329802,2668032,0,1,0
1581952329902,2668497,0,1,0
1581952330002,2669515,0,1,0
1581952330102,2669992,0,1,0
1581952330202,2671362,0,1,0
1581952330302,2671968,0,1,0
1581952330402,2671702,0,1,0
1581952330502,2672026,0,1,0
1581952330602,2672582,0,1,0
1581952330702,2673237,0,1,0
1581952330803,2673725,0,1,0
1581952330902,2674596,0,1,0
1581952331002,2675222,0,1,0
1581952331102,2675707,0,1,0
1581952331203,2675731,0,1,0
1581952331303,2675625,0,1,0
1581952331403,2675740,0,1,0
1581952331503,2675750,0,1,0
1581952331603,2676276,0,1,0
1581952331703,2676970,0,1,0
1581952331803,2677506,0,1,0
1581952331903,2677996,0,1,0
1581952332003,2678132,0,1,0
1581952332103,2677521,0,1,0
1581952332203,2677471,0,1,0
1581952332304,2677204,0,1,0
1581952332404,2677211,0,1,0
1581952332504,2677244,0,1,0
1581952332603,2677792,0,1,0
1581952332704,2678681,0,1,0
1581952332804,2679074,0,1,0
1581952332904,2678344,0,1,0
1581952333004,2677913,0,1,0
1581952333104,2677634,0,1,0
1581952333204,2677569,0,1,0
1581952333304,2677525,0,1,0
1581952333404,2677565,0,1,0
1581952333504,2677540,0,1,0
1581952333604,2677517,0,1,0
1581952333704,2676296,0,1,0
1581952333804,2676182,0,1,0
1581952333904,2675398,0,1,0
1581952334004,2675115,0,1,0
1581952334104,2675365,0,1,0
1581952334205,2675223,0,1,0
1581952334305,2675451,0,1,0
1581952334407,2675628,0,1,0
1581952334505,2674734,0,1,0
1581952334605,2673411,0,1,0
1581952334705,2672972,0,1,0
1581952334805,2672055,0,1,0
1581952334905,2669261,0,1,0
1581952335005,2669066,0,1,0
1581952335105,2669343,0,1,0
1581952335205,2669905,0,1,0
1581952335305,2669227,0,1,0
1581952335405,2668244,0,1,0
1581952335506,2667632,0,1,0
1581952335606,2666723,0,1,0
1581952335706,2666290,0,1,0
1581952335806,2666248,0,1,0
1581952335906,2666176,0,1,0
1581952336006,2666514,0,1,0
1581952336106,2666827,0,1,0
1581952336206,2665886,0,1,0
1581952336309,2664657,0,1,0
1581952336406,2664344,0,1,0
1581952336506,2663754,0,1,0
1581952336606,2663574,0,1,0
1581952336708,2663700,0,1,0
1581952336808,2664159,0,1,0
1581952336908,2664848,0,1,0
1581952337008,2664260,0,1,0
1581952337107,2663221,0,1,0
1581952337207,2662771,0,1,0
1581952337309,2662524,0,1,0
1581952337407,2662823,0,1,0
1581952337507,2663207,0,1,0
1581952337607,2663639,0,1,0
1581952337707,2664295,0,1,0
1581952337807,2664080,0,1,0
1581952337907,2663238,0,1,0
1581952338007,2663007,0,1,0
1581952338107,2662292,0,1,0
1581952338207,2661670,0,1,0
1581952338310,2662093,0,1,0
1581952338408,2662676,0,1,0
1581952338508,2663259,0,1,0
1581952338607,2663384,0,1,0
1581952338708,2662319,0,1,0
1581952338809,2661194,0,1,0
1581952338908,2661020,0,1,0
1581952339008,2661404,0,1,0
1581952339108,2661682,0,1,0
1581952339209,2661901,0,1,0
1581952339309,2662061,0,1,0
1581952339408,2663136,0,1,0
1581952339508,2662950,0,1,0
1581952339608,2662814,0,1,0
1581952339708,2662949,0,1,0
1581952339808,2663597,0,1,0
1581952339908,2663874,0,1,0
1581952340009,2665011,0,1,0
1581952340109,2665949,0,1,0
1581952340209,2667103,0,1,0
1581952340309,2666956,0,1,0
1581952340409,2666748,0,1,0
1581952340509,2667108,0,1,0
1581952340609,2667386,0,1,0
1581952340709,2667992,0,1,0
1581952340809,2668498,0,1,0
1581952340909,2669206,0,1,0
1581952341009,2669594,0,1,0
1581952341109,2669176,0,1,0
1581952341209,2668832,0,1,0
1581952341309,2668867,0,1,0
1581952341409,2669236,0,1,0
1581952341509,2669391,0,1,0
1581952341609,2669768,0,1,0
1581952341710,2670459,0,1,0
1581952341810,2670513,0,1,0
1581952341910,2669797,0,1,0
1581952342010,2668998,0,1,0
1581952342110,2668770,0,1,0
1581952342210,2668310,0,1,0
1581952342310,2668541,0,1,0
1581952342410,2669108,0,1,0
1581952342510,2669604,0,1,0
1581952342610,2670179,0,1,0
1581952342710,2669434,0,1,0
1581952342811,2668933,0,1,0
1581952342910,2668721,0,1,0
1581952343010,2668399,0,1,0
1581952343110,2668280,0,1,0
1581952343211,2668645,0,1,0
1581952343311,2668836,0,1,0
1581952343411,2669307,0,1,0
1581952343511,2669729,0,1,0
1581952343611,2668934,0,1,0
1581952343711,2668563,0,1,0
1581952343811,2668277,0,1,0
1581952343911,2668373,0,1,0
1581952344011,2668149,0,1,0
1581952344111,2668344,0,1,0
1581952344211,2668922,0,1,0
1581952344312,2669237,0,1,0
1581952344412,2667386,0,1,0
1581952344511,2666436,0,1,0
1581952344612,2666397,0,1,0
1581952344712,2666238,0,1,0
1581952344812,2665709,0,1,0
1581952344912,2665410,0,1,0
1581952345012,2665955,0,1,0
1581952345112,2666704,0,1,0
1581952345212,2666640,0,1,0
1581952345312,2665791,0,1,0
1581952345412,2664785,0,1,0
1581952345512,2664728,0,1,0
1581952345612,2664304,0,1,0
1581952345712,2664417,0,1,0
1581952345812,2664656,0,1,0
1581952345912,2664996,0,1,0
1581952346012,2665998,0,1,0
1581952346112,2665258,0,1,0
1581952346213,2664540,0,1,0
1581952346313,2663631,0,1,0
1581952346413,2663478,0,1,0
1581952346513,2663171,0,1,0
1581952346613,2663070,0,1,0
1581952346713,2663662,0,1,0
1581952346813,2664340,0,1,0
1581952346913,2664875,0,1,0
1581952347013,2664513,0,1,0
1581952347113,2664124,0,1,0
1581952347213,2664228,0,1,0
1581952347313,2664055,0,1,0
1581952347414,2664686,0,1,0
1581952347514,2665435,0,1,0
1581952347613,2665805,0,1,0
1581952347714,2666992,0,1,0
1581952347814,2666982,0,1,0
1581952347914,2666775,0,1,0
1581952348014,2666634,0,1,0
1581952348114,2666849,0,1,0
1581952348214,2667032,0,1,0
1581952348314,2667324,0,1,0
1581952348414,2668058,0,1,0
1581952348514,2668837,0,1,0
1581952348614,2669433,0,1,0
1581952348714,2669160,0,1,0
1581952348815,2668853,0,1,0
1581952348915,2668620,0,1,0
1581952349014,2668985,0,1,0
1581952349114,2668745,0,1,0
1581952349215,2669300,0,1,0
1581952349315,2670066,0,1,0
1581952349415,2670699,0,1,0
1581952349515,2671006,0,1,0
1581952349615,2670400,0,1,0
1581952349715,2670080,0,1,0
1581952349815,2669867,0,1,0
1581952349915,2669778,0,1,0
1581952350015,2670579,0,1,0
1581952350115,2670908,0,1,0
1581952350215,2671520,0,1,0
1581952350315,2671695,0,1,0
1581952350416,2671119,0,1,0
1581952350516,2670852,0,1,0
1581952350616,2670848,0,1,0
1581952350716,2671233,0,1,0
1581952350816,2670732,0,1,0
1581952350916,2671001,0,1,0
1581952351016,2672083,0,1,0
1581952351116,2673330,0,1,0
1581952351216,2673667,0,1,0
1581952351316,2672787,0,1,0
1581952351416,2671377,0,1,0
1581952351516,2670177,0,1,0
1581952351616,2668673,0,1,0
1581952351716,2667112,0,1,0
1581952351816,2664126,0,1,0
1581952351917,2661880,0,1,0
1581952352016,2658657,0,1,0
1581952352117,2655751,0,1,0
1581952352217,2660574,0,1,0
1581952352319,2663500,0,1,0
1581952352417,2665013,0,1,0
1581952352517,2665744,0,1,0
1581952352617,2666411,0,1,0
1581952352717,2667009,0,1,0
1581952352819,2667391,0,1,0
1581952352917,2666894,0,1,0
1581952353017,2665881,0,1,0
1581952353117,2664994,0,1,0
1581952353217,2664236,0,1,0
1581952353317,2663624,0,1,0
1581952353417,2663500,0,1,0
1581952353518,2663576,0,1,0
1581952353618,2663362,0,1,0
1581952353718,2663795,0,1,0
1581952353818,2662752,0,1,0
1581952353918,2661580,0,1,0
1581952354018,2660010,0,1,0
1581952354118,2658527,0,1,0
1581952354218,2658056,0,1,0
1581952354318,2657707,0,1,0
1581952354418,2657164,0,1,0
1581952354518,2657399,0,1,0
1581952354618,2657680,0,1,0
1581952354718,2657583,0,1,0
1581952354819,2656623,0,1,0
1581952354919,2656136,0,1,0
1581952355019,2656751,0,1,0
1581952355119,2654325,0,1,0
1581952355219,2651412,0,1,0
1581952355319,2651434,0,1,0
1581952355419,2653241,0,1,0
1581952355519,2654963,0,1,0
1581952355619,2655571,0,1,0
1581952355719,2655701,0,1,0
1581952355819,2655666,0,1,0
1581952355919,2655790,0,1,0
1581952356019,2656218,0,1,0
1581952356119,2656683,0,1,0
1581952356219,2653510,0,1,0
1581952356320,2649700,0,1,0
1581952356420,2646176,0,1,0
1581952356519,2643403,0,1,0
1581952356619,2641282,0,1,0
1581952356719,2643299,0,1,0
1581952356820,2646442,0,1,0
1581952356920,2650529,0,1,0
1581952357020,2654272,0,1,0
1581952357120,2656962,0,1,0
1581952357220,2658333,0,1,0
1581952357320,2658507,0,1,0
1581952357420,2658352,0,1,0
1581952357520,2658270,0,1,0
1581952357620,2658728,0,1,0
1581952357720,2659742,0,1,0
1581952357820,2660855,0,1,0
1581952357920,2661818,0,1,0
1581952358020,2662308,0,1,0
1581952358120,2661938,0,1,0
1581952358221,2662589,0,1,0
1581952358321,2662438,0,1,0
1581952358421,2662786,0,1,0
1581952358522,2663756,0,1,0
1581952358621,2664269,0,1,0
1581952358721,2664127,0,1,0
1581952358822,2663519,0,1,0
1581952358921,2663129,0,1,0
1581952359021,2662919,0,1,0
1581952359121,2662514,0,1,0
1581952359221,2662722,0,1,0
1581952359321,2663868,0,1,0
1581952359421,2662950,0,1,0
1581952359521,2662018,0,1,0
1581952359622,2661345,0,1,0
1581952359722,2661147,0,1,0
1581952359822,2660731,0,1,0
1581952359922,2660469,0,1,0
1581952360022,2660793,0,1,0
1581952360122,2661094,0,1,0
1581952360222,2659954,0,1,0
1581952360322,2658948,0,1,0
1581952360422,2658354,0,1,0
1581952360522,2658030,0,1,0
1581952360622,2658024,0,1,0
1581952360722,2657774,0,1,0
1581952360823,2658397,0,1,0
1581952360923,2658653,0,1,0
1581952361022,2659522,0,1,0
1581952361122,2659270,0,1,0
1581952361223,2658747,0,1,0
1581952361323,2658621,0,1,0
1581952361423,2658618,0,1,0
1581952361523,2658985,0,1,0
1581952361623,2659619,0,1,0
1581952361723,2660430,0,1,0
1581952361823,2661090,0,1,0
1581952361923,2662140,0,1,0
1581952362023,2661550,0,1,0
1581952362123,2661502,0,1,0
1581952362223,2661540,0,1,0
1581952362324,2661828,0,1,0
1581952362424,2662169,0,1,0
1581952362523,2663264,0,1,0
1581952362623,2662784,0,1,0
1581952362724,2663687,0,1,0
1581952362824,2663958,0,1,0
1581952362924,2663447,0,1,0
1581952363024,2663483,0,1,0
1581952363124,2663603,0,1,0
1581952363224,2664059,0,1,0
1581952363324,2664242,0,1,0
1581952363424,2664607,0,1,0
1581952363524,2665261,0,1,0
1581952363624,2665736,0,1,0
1581952363724,2667180,0,1,0
1581952363824,2666888,0,1,0
1581952363924,2666310,0,1,0
1581952364024,2666075,0,1,0
1581952364124,2665884,0,1,0
1581952364224,2666297,0,1,0
1581952364325,2667047,0,1,0
1581952364437,2667756,0,1,0
1581952364525,2668767,0,1,0
1581952364625,2669441,0,1,0
1581952364725,2669665,0,1,0
1581952364825,2669684,0,1,0
1581952364925,2669868,0,1,0
1581952365025,2670488,0,1,0
1581952365125,2671076,0,1,0
1581952365225,2671798,0,1,0
1581952365325,2672990,0,1,0
1581952365425,2673681,0,1,0
1581952365526,2674152,0,1,0
1581952365626,2674854,0,1,0
1581952365726,2675528,0,1,0
1581952365826,2676277,0,1,0
1581952365926,2676682,0,1,0
1581952366026,2676513,0,1,0
1581952366126,2677245,0,1,0
1581952366226,2676919,0,1,0
1581952366328,2677723,0,1,0
1581952366426,2678676,0,1,0
1581952366527,2679718,0,1,0
1581952366626,2680073,0,1,0
1581952366727,2681156,0,1,0
1581952366828,2682076,0,1,0
1581952366927,2681907,0,1,0
1581952367026,2681556,0,1,0
1581952367127,2680968,0,1,0
1581952367227,2680740,0,1,0
1581952367327,2680831,0,1,0
1581952367427,2680891,0,1,0
1581952367527,2681079,0,1,0
1581952367627,2681042,0,1,0
1581952367727,2680266,0,1,0
1581952367827,2679702,0,1,0
1581952367927,2678886,0,1,0
1581952368027,2678938,0,1,0
1581952368127,2678991,0,1,0
1581952368227,2679154,0,1,0
1581952368330,2679075,0,1,0
1581952368428,2677820,0,1,0
1581952368533,2677115,0,1,0
1581952368628,2676850,0,1,0
1581952368728,2676193,0,1,0
1581952368830,2676315,0,1,0
1581952368928,2676124,0,1,0
1581952369028,2675940,0,1,0
1581952369128,2674268,0,1,0
1581952369229,2672740,0,1,0
1581952369330,2671635,0,1,0
1581952369429,2670974,0,1,0
1581952369529,2671178,0,1,0
1581952369629,2670814,0,1,0
1581952369729,2670614,0,1,0
1581952369829,2669293,0,1,0
1581952369929,2667437,0,1,0
1581952370029,2666155,0,1,0
1581952370129,2665608,0,1,0
1581952370229,2664898,0,1,0
1581952370329,2665053,0,1,0
1581952370429,2665346,0,1,0
1581952370529,2665451,0,1,0
1581952370629,2665697,0,1,0
1581952370729,2665171,0,1,0
1581952370829,2663973,0,1,0
1581952370929,2662928,0,1,0
1581952371029,2662300,0,1,0
1581952371129,2662133,0,1,0
1581952371229,2662369,0,1,0
1581952371329,2662847,0,1,0
1581952371429,2663176,0,1,0
1581952371529,2664167,0,1,0
1581952371629,2664155,0,1,0
1581952371730,2663580,0,1,0
1581952371830,2663519,0,1,0
1581952371930,2663513,0,1,0
1581952372030,2663758,0,1,0
1581952372130,2664557,0,1,0
1581952372230,2665363,0,1,0
1581952372330,2666198,0,1,0
1581952372430,2666737,0,1,0
1581952372530,2666777,0,1,0
1581952372630,2666805,0,1,0
1581952372730,2667307,0,1,0
1581952372832,2667347,0,1,0
1581952372931,2668318,0,1,0
1581952373031,2668897,0,1,0
1581952373130,2670053,0,1,0
1581952373231,2670867,0,1,0
1581952373331,2670654,0,1,0
1581952373431,2670314,0,1,0
1581952373531,2670689,0,1,0
1581952373631,2671231,0,1,0
1581952373732,2671947,0,1,0
1581952373831,2672657,0,1,0
1581952373931,2673118,0,1,0
1581952374031,2674285,0,1,0
1581952374131,2673979,0,1,0
1581952374231,2673828,0,1,0
1581952374332,2673824,0,1,0
1581952374432,2674389,0,1,0
1581952374531,2674869,0,1,0
1581952374631,2675524,0,1,0
1581952374732,2676433,0,1,0
1581952374832,2676966,0,1,0
1581952374932,2676625,0,1,0
1581952375032,2677408,0,1,0
1581952375132,2677188,0,1,0
1581952375232,2677051,0,1,0
1581952375332,2677450,0,1,0
1581952375432,2677987,0,1,0
1581952375532,2677737,0,1,0
1581952375632,2677544,0,1,0
1581952375732,2677129,0,1,0
1581952375832,2677232,0,1,0
1581952375932,2677470,0,1,0
1581952376032,2677542,0,1,0
1581952376132,2678188,0,1,0
1581952376233,2678724,0,1,0
1581952376333,2678169,0,1,0
1581952376433,2677522,0,1,0
1581952376533,2677906,0,1,0
1581952376633,2677678,0,1,0
1581952376733,2677723,0,1,0
1581952376833,2677845,0,1,0
1581952376933,2678365,0,1,0
1581952377033,2677338,0,1,0
1581952377133,2676890,0,1,0
1581952377234,2676100,0,1,0
1581952377333,2675958,0,1,0
1581952377433,2675137,0,1,0
1581952377533,2675360,0,1,0
1581952377634,2675525,0,1,0
1581952377734,2675340,0,1,0
1581952377834,2674201,0,1,0
1581952377934,2672813,0,1,0
1581952378034,2672103,0,1,0
1581952378134,2670522,0,1,0
1581952378234,2669579,0,1,0
1581952378334,2669917,0,1,0
1581952378434,2670218,0,1,0
1581952378534,2670702,0,1,0
1581952378634,2671175,0,1,0
1581952378734,2670608,0,1,0
1581952378835,2669429,0,1,0
1581952378935,2668380,0,1,0
1581952379034,2667729,0,1,0
1581952379134,2667182,0,1,0
1581952379235,2666964,0,1,0
1581952379335,2667080,0,1,0
1581952379435,2667251,0,1,0
1581952379535,2667602,0,1,0
1581952379635,2667645,0,1,0
1581952379735,2666493,0,1,0
1581952379835,2665701,0,1,0
1581952379935,2665054,0,1,0
1581952380035,2664931,0,1,0
1581952380135,2664615,0,1,0
1581952380235,2664826,0,1,0
1581952380336,2665029,0,1,0
1581952380436,2665771,0,1,0
1581952380536,2666666,0,1,0
1581952380636,2664841,0,1,0
1581952380736,2663411,0,1,0
1581952380836,2663205,0,1,0
1581952380936,2664599,0,1,0
1581952381036,2662083,0,1,0
1581952381136,2659918,0,1,0
1581952381236,2658398,0,1,0
1581952381336,2656365,0,1,0
1581952381436,2654411,0,1,0
1581952381536,2654264,0,1,0
1581952381636,2656013,0,1,0
1581952381736,2657571,0,1,0
1581952381836,2659732,0,1,0
1581952381937,2661941,0,1,0
1581952382036,2663579,0,1,0
1581952382137,2664089,0,1,0
1581952382237,2663556,0,1,0
1581952382342,2663481,0,1,0
1581952382437,2663002,0,1,0
1581952382537,2664249,0,1,0
1581952382637,2663319,0,1,0
1581952382737,2662373,0,1,0
1581952382839,2661784,0,1,0
1581952382937,2661289,0,1,0
1581952383037,2660715,0,1,0
1581952383137,2660551,0,1,0
1581952383237,2660095,0,1,0
1581952383338,2659368,0,1,0
1581952383438,2659621,0,1,0
1581952383540,2660574,0,1,0
1581952383638,2661195,0,1,0
1581952383739,2660714,0,1,0
1581952383838,2660473,0,1,0
1581952383938,2660540,0,1,0
1581952384038,2660514,0,1,0
1581952384138,2660776,0,1,0
1581952384238,2661522,0,1,0
1581952384338,2662201,0,1,0
1581952384438,2662964,0,1,0
1581952384538,2662561,0,1,0
1581952384638,2662595,0,1,0
1581952384739,2662213,0,1,0
1581952384839,2662393,0,1,0
1581952384939,2662541,0,1,0
1581952385039,2663245,0,1,0
1581952385139,2663792,0,1,0
1581952385239,2664159,0,1,0
1581952385339,2663892,0,1,0
1581952385439,2662802,0,1,0
1581952385539,2662646,0,1,0
1581952385639,2662017,0,1,0
1581952385739,2662122,0,1,0
1581952385839,2662410,0,1,0
1581952385939,2663072,0,1,0
1581952386039,2663497,0,1,0
1581952386139,2663828,0,1,0
1581952386239,2662841,0,1,0
1581952386340,2662046,0,1,0
1581952386440,2661927,0,1,0
1581952386540,2661577,0,1,0
1581952386639,2661934,0,1,0
1581952386740,2662482,0,1,0
1581952386840,2663422,0,1,0
1581952386940,2664015,0,1,0
1581952387040,2664900,0,1,0
1581952387140,2664659,0,1,0
1581952387240,2664562,0,1,0
1581952387340,2664614,0,1,0
1581952387440,2664935,0,1,0
1581952387540,2665188,0,1,0
1581952387640,2665788,0,1,0
1581952387740,2666727,0,1,0
1581952387840,2667695,0,1,0
1581952387940,2667923,0,1,0
1581952388040,2667778,0,1,0
1581952388140,2667866,0,1,0
1581952388241,2667957,0,1,0
1581952388341,2668393,0,1,0
1581952388441,2669100,0,1,0
1581952388541,2669644,0,1,0
1581952388641,2670676,0,1,0
1581952388741,2671083,0,1,0
1581952388841,2670749,0,1,0
1581952388941,2670347,0,1,0
1581952389041,2670362,0,1,0
1581952389141,2670131,0,1,0
1581952389241,2670132,0,1,0
1581952389342,2670624,0,1,0
1581952389441,2671378,0,1,0
1581952389542,2672177,0,1,0
1581952389641,2672269,0,1,0
1581952389742,2671682,0,1,0
1581952389842,2671257,0,1,0
1581952389942,2670696,0,1,0
1581952390042,2670328,0,1,0
1581952390142,2670643,0,1,0
1581952390242,2671079,0,1,0
1581952390342,2671796,0,1,0
1581952390442,2672225,0,1,0
1581952390542,2671636,0,1,0
1581952390642,2670955,0,1,0
1581952390742,2670300,0,1,0
1581952390843,2670060,0,1,0
1581952390943,2669729,0,1,0
1581952391042,2670308,0,1,0
1581952391142,2670618,0,1,0
1581952391243,2671093,0,1,0
1581952391343,2670733,0,1,0
1581952391443,2670162,0,1,0
1581952391543,2669633,0,1,0
1581952391643,2669704,0,1,0
1581952391743,2669619,0,1,0
1581952391843,2669761,0,1,0
1581952391943,2669970,0,1,0
1581952392043,2670464,0,1,0
1581952392143,2670041,0,1,0
1581952392243,2668956,0,1,0
1581952392344,2668437,0,1,0
1581952392444,2668246,0,1,0
1581952392544,2668908,0,1,0
1581952392643,2667988,0,1,0
1581952392744,2667735,0,1,0
1581952392844,2668374,0,1,0
1581952392944,2666877,0,1,0
1581952393044,2664831,0,1,0
1581952393144,2663937,0,1,0
1581952393244,2663071,0,1,0
1581952393344,2663385,0,1,0
1581952393444,2662885,0,1,0
1581952393544,2663541,0,1,0
1581952393644,2663675,0,1,0
1581952393744,2663088,0,1,0
1581952393845,2661931,0,1,0
1581952393944,2660630,0,1,0
1581952394044,2659694,0,1,0
1581952394144,2659157,0,1,0
1581952394245,2659481,0,1,0
1581952394345,2659708,0,1,0
1581952394445,2660319,0,1,0
1581952394545,2661228,0,1,0
1581952394645,2660312,0,1,0
1581952394745,2659380,0,1,0
1581952394845,2659248,0,1,0
1581952394945,2658553,0,1,0
1581952395045,2658945,0,1,0
1581952395145,2659246,0,1,0
1581952395245,2660042,0,1,0
1581952395345,2660771,0,1,0
1581952395445,2660768,0,1,0
1581952395546,2659985,0,1,0
1581952395646,2659441,0,1,0
1581952395746,2660040,0,1,0
1581952395846,2660140,0,1,0
1581952395946,2660465,0,1,0
1581952396046,2660947,0,1,0
1581952396146,2661707,0,1,0
1581952396246,2661276,0,1,0
1581952396348,2660817,0,1,0
1581952396446,2660302,0,1,0
1581952396546,2660135,0,1,0
1581952396646,2660126,0,1,0
1581952396747,2660714,0,1,0
1581952396848,2661187,0,1,0
1581952396947,2662048,0,1,0
1581952397047,2661352,0,1,0
1581952397147,2660378,0,1,0
1581952397247,2659600,0,1,0
1581952397347,2659461,0,1,0
1581952397447,2659509,0,1,0
1581952397547,2659743,0,1,0
1581952397647,2660278,0,1,0
1581952397747,2661173,0,1,0
1581952397847,2660617,0,1,0
1581952397947,2660256,0,1,0
1581952398047,2660130,0,1,0
1581952398147,2660395,0,1,0
1581952398247,2660909,0,1,0
1581952398350,2661512,0,1,0
1581952398448,2662548,0,1,0
1581952398548,2662750,0,1,0
1581952398648,2662567,0,1,0
1581952398748,2662450,0,1,0
1581952398849,2662264,0,1,0
1581952398948,2662449,0,1,0
1581952399048,2662547,0,1,0
1581952399148,2664090,0,1,0
1581952399248,2664515,0,1,0
1581952399348,2664407,0,1,0
1581952399448,2664350,0,1,0
1581952399548,2664865,0,1,0
1581952399648,2665174,0,1,0
1581952399748,2665672,0,1,0
1581952399848,2666194,0,1,0
1581952399948,2666443,0,1,0
1581952400049,2665857,0,1,0
1581952400149,2665359,0,1,0
1581952400249,2665307,0,1,0
1581952400349,2665423,0,1,0
1581952400449,2665616,0,1,0
1581952400549,2665964,0,1,0
1581952400649,2666510,0,1,0
1581952400749,2666568,0,1,0
1581952400849,2667777,0,1,0
1581952400950,2667087,0,1,0
1581952401049,2665991,0,1,0
1581952401149,2665243,0,1,0
1581952401249,2665043,0,1,0
1581952401349,2665160,0,1,0
1581952401450,2665682,0,1,0
1581952401550,2665039,0,1,0
1581952401649,2664792,0,1,0
1581952401750,2663780,0,1,0
1581952401850,2663808,0,1,0
1581952401950,2664014,0,1,0
1581952402050,2664775,0,1,0
1581952402151,2665623,0,1,0
1581952402251,2666430,0,1,0
1581952402352,2665877,0,1,0
1581952402451,2665852,0,1,0
1581952402551,2665967,0,1,0
1581952402651,2666025,0,1,0
1581952402751,2666249,0,1,0
1581952402851,2666842,0,1,0
1581952402951,2667783,0,1,0
1581952403051,2668942,0,1,0
1581952403151,2666658,0,1,0
1581952403251,2665267,0,1,0
1581952403351,2665456,0,1,0
1581952403451,2666162,0,1,0
1581952403551,2667610,0,1,0
1581952403651,2665947,0,1,0
1581952403751,2666148,0,1,0
1581952403851,2666449,0,1,0
1581952403951,2666088,0,1,0
1581952404051,2666061,0,1,0
1581952404151,2666090,0,1,0
1581952404251,2666270,0,1,0
1581952404352,2666811,0,1,0
1581952404452,2667242,0,1,0
1581952404552,2666610,0,1,0
1581952404651,2665658,0,1,0
1581952404752,2665547,0,1,0
1581952404852,2665368,0,1,0
1581952404952,2665934,0,1,0
1581952405052,2666177,0,1,0
1581952405152,2666562,0,1,0
1581952405252,2666700,0,1,0
1581952405352,2666069,0,1,0
1581952405452,2665992,0,1,0
1581952405552,2665616,0,1,0
1581952405652,2666076,0,1,0
1581952405752,2666512,0,1,0
1581952405852,2667407,0,1,0
1581952405952,2667862,0,1,0
1581952406052,2667582,0,1,0
1581952406153,2666769,0,1,0
1581952406253,2666636,0,1,0
1581952406353,2666708,0,1,0
1581952406453,2666883,0,1,0
1581952406553,2667460,0,1,0
1581952406653,2667962,0,1,0
1581952406753,2667434,0,1,0
1581952406853,2666656,0,1,0
1581952406953,2666427,0,1,0
1581952407053,2666082,0,1,0
1581952407153,2666412,0,1,0
1581952407254,2666784,0,1,0
1581952407353,2667154,0,1,0
1581952407453,2667060,0,1,0
1581952407554,2666301,0,1,0
1581952407653,2665728,0,1,0
1581952407754,2665547,0,1,0
1581952407854,2665552,0,1,0
1581952407954,2665658,0,1,0
1581952408054,2665954,0,1,0
1581952408154,2666599,0,1,0
1581952408254,2668501,0,1,0
1581952408354,2667725,0,1,0
1581952408454,2666226,0,1,0
1581952408554,2664928,0,1,0
1581952408654,2664125,0,1,0
1581952408754,2663860,0,1,0
1581952408855,2663904,0,1,0
1581952408955,2664078,0,1,0
1581952409054,2664014,0,1,0
1581952409155,2663276,0,1,0
1581952409255,2662829,0,1,0
1581952409355,2662876,0,1,0
1581952409455,2662989,0,1,0
1581952409555,2663321,0,1,0
1581952409656,2663820,0,1,0
1581952409755,2664917,0,1,0
1581952409855,2665802,0,1,0
1581952409955,2666289,0,1,0
1581952410055,2665906,0,1,0
1581952410156,2666245,0,1,0
1581952410255,2666557,0,1,0
1581952410356,2667305,0,1,0
1581952410456,2668003,0,1,0
1581952410556,2668784,0,1,0
1581952410656,2669919,0,1,0
1581952410756,2669800,0,1,0
1581952410856,2669344,0,1,0
1581952410956,2669806,0,1,0
1581952411056,2668591,0,1,0
1581952411156,2668411,0,1,0
1581952411258,2668798,0,1,0
1581952411356,2668498,0,1,0
1581952411456,2666046,0,1,0
1581952411556,2663668,0,1,0
1581952411656,2661822,0,1,0
1581952411756,2661803,0,1,0
1581952411856,2664375,0,1,0
1581952411957,2667241,0,1,0
1581952412057,2668786,0,1,0
1581952412157,2670232,0,1,0
1581952412257,2672406,0,1,0
1581952412359,2673182,0,1,0
1581952412457,2672538,0,1,0
1581952412557,2672582,0,1,0
1581952412657,2672891,0,1,0
1581952412757,2673239,0,1,0
1581952412859,2673613,0,1,0
1581952412957,2674281,0,1,0
1581952413057,2675448,0,1,0
1581952413157,2675967,0,1,0
1581952413257,2676222,0,1,0
1581952413357,2676421,0,1,0
1581952413458,2676986,0,1,0
1581952413558,2677295,0,1,0
1581952413658,2677715,0,1,0
1581952413758,2678674,0,1,0
1581952413858,2679203,0,1,0
1581952413958,2680100,0,1,0
1581952414058,2680337,0,1,0
1581952414158,2679499,0,1,0
1581952414258,2677774,0,1,0
1581952414359,2678988,0,1,0
1581952414458,2680673,0,1,0
1581952414558,2680526,0,1,0
1581952414658,2680589,0,1,0
1581952414759,2679669,0,1,0
1581952414859,2676820,0,1,0
1581952414959,2675032,0,1,0
1581952415059,2673577,0,1,0
1581952415159,2673431,0,1,0
1581952415259,2672957,0,1,0
1581952415359,2673465,0,1,0
1581952415459,2673638,0,1,0
1581952415559,2672975,0,1,0
1581952415659,2671231,0,1,0
1581952415759,2670000,0,1,0
1581952415859,2670418,0,1,0
1581952415959,2670335,0,1,0
1581952416059,2669136,0,1,0
1581952416159,2668515,0,1,0
1581952416259,2668787,0,1,0
1581952416360,2669485,0,1,0
1581952416460,2669033,0,1,0
1581952416560,2669174,0,1,0
1581952416659,2669173,0,1,0
1581952416760,2669506,0,1,0
1581952416860,2669921,0,1,0
1581952416960,2671047,0,1,0
1581952417060,2671951,0,1,0
1581952417160,2669957,0,1,0
1581952417260,2668702,0,1,0
1581952417360,2664222,0,1,0
1581952417460,2662285,0,1,0
1581952417560,2662825,0,1,0
1581952417660,2663544,0,1,0
1581952417760,2664828,0,1,0
1581952417860,2666019,0,1,0
1581952417960,2665057,0,1,0
1581952418061,2663826,0,1,0
1581952418161,2664275,0,1,0
1581952418261,2664444,0,1,0
1581952418361,2665190,0,1,0
1581952418461,2665564,0,1,0
1581952418561,2666597,0,1,0
1581952418661,2666617,0,1,0
1581952418769,2665881,0,1,0
1581952418862,2665179,0,1,0
1581952418961,2665383,0,1,0
1581952419061,2665137,0,1,0
1581952419161,2665280,0,1,0
1581952419261,2665777,0,1,0
1581952419362,2666148,0,1,0
1581952419462,2665471,0,1,0
1581952419562,2664516,0,1,0
1581952419661,2664415,0,1,0
1581952419762,2664932,0,1,0
1581952419862,2663346,0,1,0
1581952419962,2663090,0,1,0
1581952420062,2664311,0,1,0
1581952420162,2664728,0,1,0
1581952420262,2664405,0,1,0
1581952420362,2664280,0,1,0
1581952420462,2662656,0,1,0
1581952420563,2661657,0,1,0
1581952420662,2661671,0,1,0
1581952420762,2661887,0,1,0
1581952420863,2663028,0,1,0
1581952420963,2663505,0,1,0
1581952421062,2663479,0,1,0
1581952421163,2663746,0,1,0
1581952421263,2664054,0,1,0
1581952421363,2664638,0,1,0
1581952421463,2665243,0,1,0
1581952421563,2666434,0,1,0
1581952421663,2667165,0,1,0
1581952421763,2665562,0,1,0
1581952421863,2664302,0,1,0
1581952421963,2664328,0,1,0
1581952422063,2664589,0,1,0
1581952422163,2665872,0,1,0
1581952422263,2666949,0,1,0
1581952422364,2667931,0,1,0
1581952422464,2667836,0,1,0
1581952422564,2667428,0,1,0
1581952422664,2666828,0,1,0
1581952422764,2668098,0,1,0
1581952422865,2669580,0,1,0
1581952422965,2670728,0,1,0
1581952423065,2671006,0,1,0
1581952423164,2671072,0,1,0
1581952423265,2671054,0,1,0
1581952423365,2670025,0,1,0
1581952423465,2668062,0,1,0
1581952423565,2666148,0,1,0
1581952423665,2664905,0,1,0
1581952423766,2663064,0,1,0
1581952423866,2662137,0,1,0
1581952423966,2661952,0,1,0
1581952424066,2666281,0,1,0
1581952424166,2674059,0,1,0
1581952424266,2678100,0,1,0
1581952424369,2682357,0,1,0
1581952424469,2684322,0,1,0
1581952424567,2684355,0,1,0
1581952424666,2683499,0,1,0
1581952424767,2682932,0,1,0
1581952424869,2682590,0,1,0
1581952424967,2682584,0,1,0
1581952425068,2682381,0,1,0
1581952425167,2682289,0,1,0
1581952425267,2681229,0,1,0
1581952425367,2679040,0,1,0
1581952425467,2677245,0,1,0
1581952425567,2675910,0,1,0
1581952425667,2675782,0,1,0
1581952425767,2675487,0,1,0
1581952425867,2675132,0,1,0
1581952425967,2673332,0,1,0
1581952426067,2671911,0,1,0
1581952426168,2669667,0,1,0
1581952426267,2668980,0,1,0
1581952426370,2667800,0,1,0
1581952426468,2663781,0,1,0
1581952426568,2662460,0,1,0
1581952426668,2659769,0,1,0
1581952426768,2659495,0,1,0
1581952426868,2659318,0,1,0
1581952426968,2659167,0,1,0
1581952427068,2658942,0,1,0
1581952427168,2657970,0,1,0
1581952427268,2656272,0,1,0
1581952427368,2656467,0,1,0
1581952427468,2655080,0,1,0
1581952427568,2654144,0,1,0
1581952427668,2653675,0,1,0
1581952427769,2653174,0,1,0
1581952427868,2651587,0,1,0
1581952427969,2650560,0,1,0
1581952428069,2649683,0,1,0
1581952428169,2649208,0,1,0
1581952428269,2648698,0,1,0
1581952428369,2648255,0,1,0
1581952428469,2647276,0,1,0
1581952428569,2645896,0,1,0
1581952428669,2644800,0,1,0
1581952428769,2643964,0,1,0
1581952428869,2643979,0,1,0
1581952428969,2643847,0,1,0
1581952429069,2642824,0,1,0
1581952429169,2641591,0,1,0
1581952429269,2640644,0,1,0
1581952429370,2639858,0,1,0
1581952429470,2639148,0,1,0
1581952429570,2639095,0,1,0
1581952429670,2637889,0,1,0
1581952429770,2635739,0,1,0
1581952429870,2634698,0,1,0
1581952429969,2633719,0,1,0
1581952430069,2632792,0,1,0
1581952430170,2632259,0,1,0
1581952430269,2631953,0,1,0
1581952430369,2631509,0,1,0
1581952430469,2629692,0,1,0
1581952430569,2628247,0,1,0
1581952430669,2626956,0,1,0
1581952430769,2626291,0,1,0
1581952430869,2625854,0,1,0
1581952430969,2626063,0,1,0
1581952431069,2625594,0,1,0
1581952431169,2625478,0,1,0
1581952431269,2624199,0,1,0
1581952431369,2623368,0,1,0
1581952431469,2622513,0,1,0
1581952431570,2622608,0,1,0
1581952431670,2622535,0,1,0
1581952431770,2622837,0,1,0
1581952431870,2623048,0,1,0
1581952431970,2623246,0,1,0
1581952432070,2622584,0,1,0
1581952432170,2622041,0,1,0
1581952432270,2621773,0,1,0
1581952432370,2622286,0,1,0
1581952432470,2622621,0,1,0
1581952432570,2623265,0,1,0
1581952432670,2623742,0,1,0
1581952432771,2624460,0,1,0
1581952432871,2623792,0,1,0
1581952432971,2623277,0,1,0
1581952433071,2623067,0,1,0
1581952433171,2623141,0,1,0
1581952433271,2623367,0,1,0
1581952433371,2623861,0,1,0
1581952433471,2624337,0,1,0
1581952433571,2625126,0,1,0
1581952433671,2625536,0,1,0
1581952433771,2625210,0,1,0
1581952433871,2624521,0,1,0
1581952433971,2624711,0,1,0
1581952434071,2625141,0,1,0
1581952434171,2625144,0,1,0
1581952434272,2625742,0,1,0
1581952434372,2626236,0,1,0
1581952434472,2627215,0,1,0
1581952434572,2627864,0,1,0
1581952434671,2627204,0,1,0
1581952434772,2627065,0,1,0
1581952434874,2627184,0,1,0
1581952434973,2627649,0,1,0
1581952435073,2628359,0,1,0
1581952435173,2628937,0,1,0
1581952435273,2629201,0,1,0
1581952435373,2629795,0,1,0
1581952435473,2629707,0,1,0
1581952435573,2629699,0,1,0
1581952435673,2629966,0,1,0
1581952435772,2630675,0,1,0
1581952435872,2630847,0,1,0
1581952435972,2631673,0,1,0
1581952436073,2632354,0,1,0
1581952436173,2632254,0,1,0
1581952436273,2631687,0,1,0
1581952436373,2631199,0,1,0
1581952436473,2631119,0,1,0
1581952436573,2631054,0,1,0
1581952436673,2630965,0,1,0
1581952436773,2631328,0,1,0
1581952436873,2631345,0,1,0
1581952436973,2630850,0,1,0
1581952437073,2629386,0,1,0
1581952437173,2628036,0,1,0
1581952437274,2626825,0,1,0
1581952437373,2625842,0,1,0
1581952437473,2625313,0,1,0
1581952437574,2625007,0,1,0
1581952437673,2624302,0,1,0
1581952437774,2623277,0,1,0
1581952437874,2621235,0,1,0
1581952437974,2619524,0,1,0
1581952438074,2618054,0,1,0
1581952438174,2616673,0,1,0
1581952438274,2616025,0,1,0
1581952438374,2615674,0,1,0
1581952438474,2615257,0,1,0
1581952438575,2613415,0,1,0
1581952438674,2610625,0,1,0
1581952438775,2608942,0,1,0
1581952438875,2607446,0,1,0
1581952438975,2606288,0,1,0
1581952439075,2605661,0,1,0
1581952439175,2605475,0,1,0
1581952439275,2605148,0,1,0
1581952439375,2603302,0,1,0
1581952439475,2600498,0,1,0
1581952439575,2598235,0,1,0
1581952439675,2596956,0,1,0
1581952439775,2596159,0,1,0
1581952439875,2595653,0,1,0
1581952439975,2595211,0,1,0
1581952440075,2594823,0,1,0
1581952440175,2594704,0,1,0
1581952440275,2592557,0,1,0
1581952440376,2590268,0,1,0
1581952440477,2589005,0,1,0
1581952440576,2588092,0,1,0
1581952440676,2587591,0,1,0
1581952440776,2587677,0,1,0
1581952440877,2587886,0,1,0
1581952440976,2588318,0,1,0
1581952441076,2588819,0,1,0
1581952441176,2589257,0,1,0
1581952441276,2588339,0,1,0
1581952441376,2586950,0,1,0
1581952441476,2586186,0,1,0
1581952441577,2585925,0,1,0
1581952441676,2586270,0,1,0
1581952441776,2586700,0,1,0
1581952441877,2587423,0,1,0
1581952441977,2588174,0,1,0
1581952442077,2589253,0,1,0
1581952442177,2590438,0,1,0
1581952442277,2590536,0,1,0
1581952442380,2590188,0,1,0
1581952442477,2590017,0,1,0
1581952442577,2590105,0,1,0
1581952442677,2591266,0,1,0
1581952442777,2590839,0,1,0
1581952442879,2591042,0,1,0
1581952442977,2592233,0,1,0
1581952443077,2593892,0,1,0
1581952443177,2595118,0,1,0
1581952443277,2595405,0,1,0
1581952443377,2595634,0,1,0
1581952443478,2596077,0,1,0
1581952443580,2596803,0,1,0
1581952443678,2597406,0,1,0
1581952443778,2598435,0,1,0
1581952443878,2599634,0,1,0
1581952443978,2600800,0,1,0
1581952444078,2601481,0,1,0
1581952444178,2601629,0,1,0
1581952444278,2601563,0,1,0
1581952444378,2601750,0,1,0
1581952444478,2601929,0,1,0
1581952444579,2602491,0,1,0
1581952444678,2603309,0,1,0
1581952444779,2603984,0,1,0
1581952444879,2605123,0,1,0
1581952444979,2606150,0,1,0
1581952445079,2605971,0,1,0
1581952445179,2606218,0,1,0
1581952445279,2606297,0,1,0
1581952445379,2606640,0,1,0
1581952445479,2607095,0,1,0
1581952445579,2607772,0,1,0
1581952445679,2608270,0,1,0
1581952445779,2609162,0,1,0
1581952445879,2609639,0,1,0
1581952445979,2609619,0,1,0
1581952446079,2609383,0,1,0
1581952446179,2609328,0,1,0
1581952446279,2609284,0,1,0
1581952446380,2609473,0,1,0
1581952446480,2610206,0,1,0
1581952446580,2610625,0,1,0
1581952446679,2611087,0,1,0
1581952446780,2610932,0,1,0
1581952446880,2610255,0,1,0
1581952446980,2609768,0,1,0
1581952447080,2609704,0,1,0
1581952447180,2609346,0,1,0
1581952447280,2609403,0,1,0
1581952447380,2609287,0,1,0
1581952447480,2609641,0,1,0
1581952447580,2609737,0,1,0
1581952447680,2608590,0,1,0
1581952447780,2607167,0,1,0
1581952447880,2605973,0,1,0
1581952447980,2604909,0,1,0
1581952448081,2604354,0,1,0
1581952448181,2603760,0,1,0
1581952448281,2603446,0,1,0
1581952448381,2603472,0,1,0
1581952448481,2603236,0,1,0
1581952448581,2601257,0,1,0
1581952448681,2599317,0,1,0
1581952448781,2598094,0,1,0
1581952448882,2596884,0,1,0
1581952448981,2596525,0,1,0
1581952449081,2595926,0,1,0
1581952449181,2595802,0,1,0
1581952449281,2595386,0,1,0
1581952449382,2595131,0,1,0
1581952449481,2593567,0,1,0
1581952449582,2591729,0,1,0
1581952449683,2589961,0,1,0
1581952449782,2588694,0,1,0
1581952449882,2588142,0,1,0
1581952449982,2588334,0,1,0
1581952450082,2588328,0,1,0
1581952450182,2588869,0,1,0
1581952450282,2588576,0,1,0
1581952450382,2586791,0,1,0
1581952450482,2585393,0,1,0
1581952450583,2583881,0,1,0
1581952450683,2582753,0,1,0
1581952450783,2581720,0,1,0
1581952450883,2582118,0,1,0
1581952450983,2582538,0,1,0
1581952451083,2583630,0,1,0
1581952451183,2583444,0,1,0
1581952451283,2582051,0,1,0
1581952451383,2580381,0,1,0
1581952451483,2580043,0,1,0
1581952451583,2579865,0,1,0
1581952451683,2580528,0,1,0
1581952451783,2581434,0,1,0
1581952451883,2582250,0,1,0
1581952451983,2583348,0,1,0
1581952452083,2583745,0,1,0
1581952452183,2583022,0,1,0
1581952452283,2581964,0,1,0
1581952452384,2581936,0,1,0
1581952452484,2582233,0,1,0
1581952452584,2582682,0,1,0
1581952452683,2583031,0,1,0
1581952452784,2584330,0,1,0
1581952452884,2585513,0,1,0
1581952452984,2586196,0,1,0
1581952453084,2586048,0,1,0
1581952453184,2585987,0,1,0
1581952453284,2586031,0,1,0
1581952453384,2586352,0,1,0
1581952453484,2587130,0,1,0
1581952453584,2588091,0,1,0
1581952453684,2589138,0,1,0
1581952453784,2590523,0,1,0
1581952453885,2590847,0,1,0
1581952453984,2590976,0,1,0
1581952454085,2591309,0,1,0
1581952454185,2592146,0,1,0
1581952454285,2593489,0,1,0
1581952454385,2594347,0,1,0
1581952454485,2595090,0,1,0
1581952454585,2595839,0,1,0
1581952454685,2597128,0,1,0
1581952454785,2597134,0,1,0
1581952454885,2596854,0,1,0
1581952454985,2596606,0,1,0
1581952455085,2596684,0,1,0
1581952455185,2597179,0,1,0
1581952455285,2598233,0,1,0
1581952455385,2599205,0,1,0
1581952455485,2599909,0,1,0
1581952455586,2600635,0,1,0
1581952455686,2600620,0,1,0
1581952455786,2600749,0,1,0
1581952455886,2600620,0,1,0
1581952455986,2601038,0,1,0
1581952456086,2600810,0,1,0
1581952456186,2601345,0,1,0
1581952456286,2602029,0,1,0
1581952456389,2603493,0,1,0
1581952456487,2604316,0,1,0
1581952456587,2604231,0,1,0
1581952456686,2604342,0,1,0
1581952456787,2604718,0,1,0
1581952456888,2605246,0,1,0
1581952456987,2605597,0,1,0
1581952457087,2605469,0,1,0
1581952457187,2606313,0,1,0
1581952457287,2607499,0,1,0
1581952457387,2607369,0,1,0
1581952457487,2607430,0,1,0
1581952457587,2607539,0,1,0
1581952457687,2607727,0,1,0
1581952457787,2608429,0,1,0
1581952457887,2609148,0,1,0
1581952457987,2609841,0,1,0
1581952458087,2610543,0,1,0
1581952458187,2610431,0,1,0
1581952458288,2609603,0,1,0
1581952458390,2609227,0,1,0
1581952458488,2609207,0,1,0
1581952458588,2609410,0,1,0
1581952458688,2609604,0,1,0
1581952458788,2609942,0,1,0
1581952458888,2609880,0,1,0
1581952458988,2609660,0,1,0
1581952459088,2608158,0,1,0
1581952459188,2606967,0,1,0
1581952459288,2606093,0,1,0
1581952459388,2605291,0,1,0
1581952459489,2605440,0,1,0
1581952459588,2605439,0,1,0
1581952459688,2605502,0,1,0
1581952459789,2605246,0,1,0
1581952459888,2603704,0,1,0
1581952459988,2602274,0,1,0
1581952460089,2601254,0,0,0
1581952460189,2600633,0,0,0
1581952460289,2600038,0,0,0
1581952460389,2600062,0,0,0
1581952460489,2600190,0,0,0
1581952460589,2599735,0,0,0
1581952460690,2598673,0,0,0
1581952460789,2597568,0,0,0
1581952460889,2596640,0,0,0
1581952460989,2595791,0,0,0
1581952461089,2595297,0,0,0
1581952461189,2595320,0,0,0
1581952461289,2595963,0,0,0
1581952461389,2594942,0,0,0
1581952461491,2595044,0,0,0
1581952461590,2596126,0,0,0
1581952461690,2598435,0,0,0
1581952461790,2605767,0,0,0
1581952461890,2611263,0,0,0
1581952461990,2617319,0,0,0
1581952462091,2620093,0,0,0
1581952462191,2619154,0,0,0
1581952462291,2618031,0,0,0
1581952462391,2616815,0,0,0
1581952462492,2614846,0,0,0
1581952462592,2616181,0,0,0
1581952462692,2618199,0,0,0
1581952462792,2620890,0,0,0
1581952462892,2621652,0,0,0
1581952462992,2617476,0,0,0
1581952463092,2614454,0,0,0
1581952463192,2612749,0,0,0
1581952463292,2612339,0,0,0
1581952463392,2610355,0,0,0
1581952463493,2608533,0,0,0
1581952463592,2610361,0,0,0
1581952463692,2611936,0,0,0
1581952463793,2611930,0,0,0
1581952463893,2611242,0,0,0
1581952463993,2611098,0,0,0
1581952464093,2611862,0,0,0
1581952464193,2613498,0,0,0
1581952464293,2613214,0,0,0
1581952464393,2610575,0,0,0
1581952464493,2614176,0,0,0
1581952464593,2617356,0,0,0
1581952464693,2620174,0,0,0
1581952464793,2622943,0,0,0
1581952464893,2625023,0,0,0
1581952464993,2625174,0,0,0
1581952465094,2627148,0,0,0
1581952465194,2629308,0,0,0
1581952465294,2631435,0,0,0
1581952465394,2633452,0,0,0
1581952465494,2634777,0,0,0
1581952465594,2636246,0,0,0
1581952465694,2637530,0,0,0
1581952465794,2638992,0,0,0
1581952465894,2640768,0,0,0
1581952465994,2642537,0,0,0
1581952466094,2644482,0,0,0
1581952466194,2645422,0,0,0
1581952466294,2646200,0,0,0
1581952466394,2647444,0,0,0
1581952466495,2648865,0,0,0
1581952466594,2650511,0,0,0
1581952466694,2652051,0,0,0
1581952466795,2653738,0,0,0
1581952466895,2655210,0,0,0
1581952466995,2656339,0,0,0
1581952467095,2657499,0,0,0
1581952467195,2658722,0,0,0
1581952467295,2660121,0,0,0
1581952467395,2661621,0,0,0
1581952467495,2663104,0,0,0
1581952467594,2664552,0,0,0
1581952467694,2665582,0,0,0
1581952467795,2666631,0,0,0
1581952467895,2668005,0,0,0
1581952467995,2669049,0,0,0
1581952468095,2670236,0,0,0
1581952468195,2671224,0,0,0
1581952468295,2672494,0,0,0
1581952468395,2673527,0,0,0
1581952468495,2673927,0,0,0
1581952468595,2674480,0,0,0
1581952468694,2675089,0,0,0
1581952468795,2675620,0,0,0
1581952468895,2676195,0,0,0
1581952468995,2677027,0,0,0
1581952469095,2677519,0,0,0
1581952469195,2678171,0,0,0
1581952469295,2678110,0,0,0
1581952469395,2678569,0,0,0
1581952469495,2679537,0,0,0
1581952469595,2680284,0,0,0
1581952469695,2681343,0,0,0
1581952469795,2682372,0,0,0
1581952469895,2683547,0,0,0
1581952469995,2684486,0,0,0
1581952470096,2684791,0,0,0
1581952470195,2685052,0,0,0
1581952470295,2685888,0,0,0
1581952470396,2686276,0,0,0
1581952470496,2686940,0,0,0
1581952470596,2687232,0,0,0
1581952470696,2687837,0,0,0
1581952470796,2687451,0,0,0
1581952470896,2687300,0,0,0
1581952470997,2687463,0,0,0
1581952471096,2686951,0,0,0
1581952471196,2687132,0,0,0
1581952471296,2687346,0,0,0
1581952471396,2687987,0,0,0
1581952471497,2687151,0,0,0
1581952471597,2686752,0,0,0
1581952471696,2686257,0,0,0
1581952471796,2686152,0,0,0
1581952471897,2686089,0,0,0
1581952471997,2686013,0,0,0
1581952472097,2686180,0,0,0
1581952472197,2686139,0,0,0
1581952472297,2685432,0,0,0
1581952472399,2685115,0,0,0
1581952472497,2684827,0,0,0
1581952472597,2684230,0,0,0
1581952472697,2684199,0,0,0
1581952472798,2684653,0,0,0
1581952472899,2685167,0,0,0
1581952472997,2684884,0,0,0
1581952473097,2684269,0,0,0
1581952473197,2684162,0,0,0
1581952473297,2683918,0,0,0
1581952473398,2683952,0,0,0
1581952473498,2683827,0,0,0
1581952473598,2684395,0,0,0
1581952473698,2684400,0,0,0
1581952473798,2683674,0,0,0
1581952473898,2682917,0,0,0
1581952473998,2682442,0,0,0
1581952474098,2682242,0,0,0
1581952474198,2682269,0,0,0
1581952474298,2682496,0,0,0
1581952474399,2682838,0,0,0
1581952474498,2682843,0,0,0
1581952474599,2682622,0,0,0
1581952474698,2682513,0,0,0
1581952474799,2682408,0,0,0
1581952474899,2682635,0,0,0
1581952474999,2682877,0,0,0
1581952475099,2683482,0,0,0
1581952475199,2684552,0,0,0
1581952475299,2684944,0,0,0
1581952475399,2684389,0,0,0
1581952475499,2684420,0,0,0
1581952475599,2682793,0,0,0
1581952475699,2680442,0,0,0
1581952475799,2679638,0,0,0
1581952475899,2679230,0,0,0
1581952475999,2679455,0,0,0
1581952476099,2678691,0,0,0
1581952476199,2677256,0,0,0
1581952476299,2676310,0,0,0
1581952476400,2675290,0,0,0
1581952476500,2674507,0,0,0
1581952476600,2674039,0,0,0
1581952476700,2674047,0,0,0
1581952476800,2673927,0,0,0
1581952476900,2673978,0,0,0
1581952477000,2673399,0,0,0
1581952477100,2673051,0,0,0
1581952477200,2672738,0,0,0
1581952477300,2672504,0,0,0
1581952477400,2672398,0,0,0
1581952477500,2672428,0,0,0
1581952477600,2672786,0,0,0
1581952477700,2672807,0,0,0
1581952477801,2672615,0,0,0
1581952477900,2672289,0,0,0
1581952478000,2672265,0,0,0
1581952478100,2672371,0,0,0
1581952478201,2672719,0,0,0
1581952478301,2672788,0,0,0
1581952478401,2673655,0,0,0
1581952478502,2673661,0,0,0
1581952478601,2673540,0,0,0
1581952478701,2673484,0,0,0
1581952478801,2673393,0,0,0
1581952478902,2673510,0,0,0
1581952479001,2673455,0,0,0
1581952479101,2673913,0,0,0
1581952479201,2673874,0,0,0
1581952479301,2673296,0,0,0
1581952479402,2672585,0,0,0
1581952479502,2671591,0,0,0
1581952479602,2670951,0,0,0
1581952479702,2670191,0,0,0
1581952479802,2670108,0,0,0
1581952479902,2669636,0,0,0
1581952480002,2668828,0,0,0
1581952480102,2667686,0,0,0
1581952480202,2666407,0,0,0
1581952480302,2665918,0,0,0
1581952480402,2665100,0,0,0
1581952480503,2664679,0,0,0
1581952480603,2664539,0,0,0
1581952480702,2664298,0,0,0
1581952480803,2662755,0,0,0
1581952480903,2659288,0,0,0
1581952481003,2658595,0,0,0
1581952481102,2658192,0,0,0
1581952481203,2656348,0,0,0
1581952481303,2655963,0,0,0
1581952481403,2658492,0,0,0
1581952481503,2661832,0,0,0
1581952481603,2662757,0,0,0
1581952481703,2662071,0,0,0
1581952481803,2661874,0,0,0
1581952481903,2660149,0,0,0
1581952482003,2658836,0,0,0
1581952482103,2660080,0,0,0
1581952482203,2661976,0,0,0
1581952482303,2663582,0,0,0
1581952482404,2665039,0,0,0
1581952482505,2667488,0,0,0
1581952482604,2669075,0,0,0
1581952482704,2671246,0,0,0
1581952482804,2672858,0,0,0
1581952482904,2674511,0,0,0
1581952483004,2676201,0,0,0
1581952483104,2677382,0,0,0
1581952483204,2678513,0,0,0
1581952483304,2679466,0,0,0
1581952483404,2680821,0,0,0
1581952483504,2682492,0,0,0
1581952483605,2684421,0,0,0
1581952483704,2685727,0,0,0
1581952483804,2687602,0,0,0
1581952483905,2689370,0,0,0
1581952484004,2689910,0,0,0
1581952484105,2690672,0,0,0
1581952484205,2691536,0,0,0
1581952484305,2692669,0,0,0
1581952484405,2693996,0,0,0
1581952484520,2694906,0,0,0
1581952484605,2695827,0,0,0
1581952484705,2697323,0,0,0
1581952484805,2698907,0,0,0
1581952484905,2699025,0,0,0
1581952485005,2699539,0,0,0
1581952485107,2700290,0,0,0
1581952485207,2702102,0,0,0
1581952485306,2696304,0,0,0
1581952485406,2689011,0,0,0
1581952485507,2688613,0,0,0
1581952485607,2700830,0,0,0
1581952485707,2714141,0,0,0
1581952485807,2725012,0,0,0
1581952485907,2736007,0,0,0
1581952486007,2743138,0,0,0
1581952486107,2742557,0,0,0
1581952486208,2743188,0,0,0
1581952486308,2744888,0,0,0
1581952486410,2751611,0,0,0
1581952486508,2761049,0,0,0
1581952486608,2763334,0,0,0
1581952486708,2770246,0,0,0
1581952486808,2788297,0,0,0
1581952486908,2797252,0,0,0
1581952487008,2802086,0,0,0
1581952487107,2805174,0,0,0
1581952487208,2806967,0,0,0
1581952487308,2807825,0,0,0
1581952487408,2811152,0,0,0
1581952487509,2814782,0,0,0
1581952487609,2810871,0,0,0
1581952487708,2807721,0,0,0
1581952487809,2803032,0,0,0
1581952487909,2797722,0,0,0
1581952488009,2789835,0,0,0
1581952488110,2786619,0,0,0
1581952488209,2788147,0,0,0
1581952488309,2788289,0,0,0
1581952488409,2784262,0,0,0
1581952488509,2781635,0,0,0
1581952488609,2790479,0,0,0
1581952488709,2783763,0,0,0
1581952488809,2776097,0,0,0
1581952488909,2773313,0,0,0
1581952489010,2772931,0,0,0
1581952489109,2768908,0,0,0
1581952489209,2764415,0,0,0
1581952489310,2759959,0,0,0
1581952489409,2757857,0,0,0
1581952489510,2759450,0,0,0
1581952489610,2757726,0,0,0
1581952489710,2755733,0,0,0
1581952489810,2750234,0,0,0
1581952489910,2744981,0,0,0
1581952490010,2742710,0,2,0
1581952490110,2743630,0,2,0
1581952490210,2746896,0,2,0
1581952490310,2752624,0,2,0
1581952490410,2756374,0,2,0
1581952490511,2755361,0,2,0
1581952490610,2755395,0,2,0
1581952490710,2753164,0,2,0
1581952490811,2746854,0,2,0
1581952490911,2749691,0,2,0
1581952491011,2750595,0,2,0
1581952491110,2756004,0,2,0
1581952491211,2759695,0,2,0
1581952491311,2761348,0,2,0
1581952491411,2760145,0,2,0
1581952491511,2759886,0,2,0
1581952491611,2758868,0,2,0
1581952491711,2759364,0,2,0
1581952491811,2761103,0,2,0
1581952491911,2763646,0,2,0
1581952492012,2764509,0,2,0
1581952492111,2762915,0,2,0
1581952492211,2761576,0,2,0
1581952492312,2755840,0,2,0
1581952492412,2751590,0,2,0
1581952492512,2751525,0,2,0
1581952492612,2753902,0,2,0
1581952492712,2758573,0,2,0
1581952492812,2760656,0,2,0
1581952492912,2764551,0,2,0
1581952493012,2764834,0,2,0
1581952493111,2766930,0,2,0
1581952493212,2769164,0,2,0
1581952493312,2766624,0,2,0
1581952493412,2763601,0,2,0
1581952493512,2765085,0,2,0
1581952493612,2767060,0,2,0
1581952493712,2770122,0,2,0
1581952493813,2773696,0,2,0
1581952493913,2775567,0,2,0
1581952494013,2775661,0,2,0
1581952494112,2775016,0,2,0
1581952494213,2774690,0,2,0
1581952494313,2774117,0,2,0
1581952494413,2774337,0,2,0
1581952494513,2774258,0,2,0
1581952494613,2774196,0,2,0
1581952494713,2774284,0,2,0
1581952494813,2773244,0,2,0
1581952494914,2773154,0,2,0
1581952495014,2772900,0,2,0
1581952495113,2772328,0,2,0
1581952495214,2772058,0,2,0
1581952495314,2770997,0,2,0
1581952495413,2769776,0,2,0
1581952495514,2768496,0,2,0
1581952495614,2767431,0,2,0
1581952495714,2766526,0,2,0
1581952495814,2765816,0,2,0
1581952495914,2764914,0,2,0
1581952496014,2763834,0,2,0
1581952496114,2761991,0,2,0
1581952496214,2760597,0,2,0
1581952496314,2759063,0,2,0
1581952496414,2758103,0,2,0
1581952496515,2757020,0,2,0
1581952496615,2756246,0,2,0
1581952496714,2755621,0,2,0
1581952496815,2753268,0,2,0
1581952496915,2751659,0,2,0
1581952497015,2750692,0,2,0
1581952497114,2749945,0,2,0
1581952497218,2749286,0,2,0
1581952497315,2748864,0,2,0
1581952497415,2748320,0,2,0
1581952497515,2746749,0,2,0
1581952497615,2745307,0,2,0
1581952497715,2744609,0,2,0
1581952497815,2743854,0,2,0
1581952497915,2743669,0,2,0
1581952498015,2743368,0,2,0
1581952498115,2743709,0,2,0
1581952498215,2743665,0,2,0
1581952498316,2743262,0,2,0
1581952498416,2742736,0,2,0
1581952498516,2742509,0,2,0
1581952498616,2742699,0,2,0
1581952498716,2742990,0,2,0
1581952498816,2743347,0,2,0
1581952498918,2744239,0,2,0
1581952499016,2744709,0,2,0
1581952499115,2744954,0,2,0
1581952499218,2745137,0,2,0
1581952499317,2745369,0,2,0
1581952499416,2746032,0,2,0
1581952499517,2747054,0,2,0
1581952499617,2747847,0,2,0
1581952499716,2748507,0,2,0
1581952499817,2749394,0,2,0
1581952499917,2749250,0,2,0
1581952500056,2748744,0,2,0
1581952500116,2749392,0,2,0
1581952500219,2749983,0,2,0
1581952500319,2751108,0,2,0
1581952500418,2752496,0,2,0
1581952500517,2753802,0,2,0
1581952500617,2754976,0,2,0
1581952500719,2755643,0,2,0
1581952500819,2756373,0,2,0
1581952500919,2757734,0,2,0
1581952501019,2758319,0,2,0
1581952501118,2759069,0,2,0
1581952501219,2759222,0,2,0
1581952501319,2759663,0,2,0
1581952501418,2761314,0,2,0
1581952501518,2762574,0,2,0
1581952501618,2763193,0,2,0
1581952501718,2764220,0,2,0
1581952501818,2764754,0,2,0
1581952501918,2765342,0,2,0
1581952502018,2765777,0,2,0
1581952502117,2766651,0,2,0
1581952502218,2766805,0,2,0
1581952502318,2767154,0,2,0
1581952502418,2767127,0,2,0
1581952502519,2766884,0,2,0
1581952502619,2765693,0,2,0
1581952502718,2765759,0,2,0
1581952502819,2766326,0,2,0
1581952502919,2766428,0,2,0
1581952503019,2766919,0,2,0
1581952503118,2766650,0,2,0
1581952503219,2766513,0,2,0
1581952503319,2765658,0,2,0
1581952503419,2764359,0,2,0
1581952503519,2763585,0,2,0
1581952503619,2762893,0,2,0
1581952503719,2762523,0,2,0
1581952503819,2762227,0,2,0
1581952503920,2761539,0,2,0
1581952504019,2760262,0,2,0
1581952504120,2759101,0,2,0
1581952504219,2757603,0,2,0
1581952504320,2756442,0,2,0
1581952504420,2755480,0,2,0
1581952504520,2754290,0,2,0
1581952504620,2753668,0,2,0
1581952504720,2754026,0,2,0
1581952504820,2754857,0,2,0
1581952504920,2751583,0,2,0
1581952505020,2742873,0,2,0
1581952505120,2736898,0,2,0
1581952505220,2735195,0,2,0
1581952505320,2733978,0,2,0
1581952505420,2733514,0,2,0
1581952505521,2732918,0,2,0
1581952505620,2732060,0,2,0
1581952505721,2731090,0,2,0
1581952505821,2730221,0,2,0
1581952505921,2728579,0,2,0
1581952506021,2729064,0,2,0
1581952506120,2729302,0,2,0
1581952506221,2729776,0,2,0
1581952506321,2729911,0,2,0
1581952506421,2730217,0,2,0
1581952506521,2730415,0,2,0
1581952506621,2730576,0,2,0
1581952506721,2730510,0,2,0
1581952506821,2730195,0,2,0
1581952506922,2730425,0,2,0
1581952507022,2730532,0,2,0
1581952507121,2731702,0,2,0
1581952507221,2729737,0,2,0
1581952507322,2729066,0,2,0
1581952507422,2729185,0,2,0
1581952507522,2729276,0,2,0
1581952507622,2729481,0,2,0
1581952507722,2729839,0,2,0
1581952507822,2729618,0,2,0
1581952507922,2728627,0,2,0
1581952508022,2727941,0,2,0
1581952508121,2727616,0,2,0
1581952508222,2727407,0,2,0
1581952508322,2727493,0,2,0
1581952508422,2727976,0,2,0
1581952508523,2728365,0,2,0
1581952508622,2728223,0,2,0
1581952508722,2727219,0,2,0
1581952508823,2726484,0,2,0
1581952508923,2726645,0,2,0
1581952509023,2726532,0,2,0
1581952509122,2727387,0,2,0
1581952509223,2727807,0,2,0
1581952509323,2728906,0,2,0
1581952509423,2729549,0,2,0
1581952509523,2728770,0,2,0
1581952509623,2728145,0,2,0
1581952509723,2728045,0,2,0
1581952509823,2728394,0,2,0
1581952509923,2728389,0,2,0
1581952510023,2728968,0,2,0
1581952510123,2729472,0,2,0
1581952510224,2730426,0,2,0
1581952510324,2730235,0,2,0
1581952510424,2730437,0,2,0
1581952510524,2730884,0,2,0
1581952510624,2730747,0,2,0
1581952510724,2731437,0,2,0
1581952510824,2732540,0,2,0
1581952510924,2733279,0,2,0
1581952511024,2734462,0,2,0
1581952511123,2734521,0,2,0
1581952511224,2734198,0,2,0
1581952511324,2734051,0,2,0
1581952511424,2734365,0,2,0
1581952511524,2734768,0,2,0
1581952511624,2735068,0,2,0
1581952511724,2735787,0,2,0
1581952511825,2737019,0,2,0
1581952511925,2737461,0,2,0
1581952512025,2737349,0,2,0
1581952512124,2737717,0,2,0
1581952512225,2737592,0,2,0
1581952512325,2737937,0,2,0
1581952512426,2738105,0,2,0
1581952512525,2739070,0,2,0
1581952512625,2739841,0,2,0
1581952512725,2740628,0,2,0
1581952512825,2740743,0,2,0
1581952512926,2740793,0,2,0
1581952513026,2741020,0,2,0
1581952513125,2741465,0,2,0
1581952513225,2741618,0,2,0
1581952513326,2741938,0,2,0
1581952513426,2742485,0,2,0
1581952513526,2744169,0,2,0
1581952513626,2745194,0,2,0
1581952513726,2743974,0,2,0
1581952513826,2742912,0,2,0
1581952513926,2742939,0,2,0
1581952514026,2742625,0,2,0
1581952514125,2743087,0,2,0
1581952514226,2743458,0,2,0
1581952514326,2743840,0,2,0
1581952514429,2743192,0,2,0
1581952514528,2742526,0,2,0
1581952514627,2742206,0,2,0
1581952514726,2742055,0,2,0
1581952514827,2742718,0,2,0
1581952514929,2742794,0,2,0
1581952515027,2742358,0,2,0
1581952515127,2741668,0,2,0
1581952515227,2741133,0,2,0
1581952515327,2741279,0,2,0
1581952515427,2741143,0,2,0
1581952515527,2741219,0,2,0
1581952515627,2741532,0,2,0
1581952515727,2741597,0,2,0
1581952515827,2740476,0,2,0
1581952515927,2738952,0,2,0
1581952516027,2738563,0,2,0
1581952516127,2738710,0,2,0
1581952516228,2738742,0,2,0
1581952516328,2739053,0,2,0
1581952516431,2739430,0,2,0
1581952516528,2738324,0,2,0
1581952516628,2737444,0,2,0
1581952516728,2736166,0,2,0
1581952516828,2735381,0,2,0
1581952516928,2735402,0,2,0
1581952517028,2735867,0,2,0
1581952517127,2735850,0,2,0
1581952517228,2735240,0,2,0
1581952517328,2733423,0,2,0
1581952517428,2732371,0,2,0
1581952517529,2731507,0,2,0
1581952517629,2731138,0,2,0
1581952517728,2731495,0,2,0
1581952517829,2731391,0,2,0
1581952517929,2731521,0,2,0
1581952518029,2730277,0,2,0
1581952518128,2729263,0,2,0
1581952518229,2728699,0,2,0
1581952518329,2728599,0,2,0
1581952518429,2728437,0,2,0
1581952518529,2728694,0,2,0
1581952518629,2729133,0,2,0
1581952518729,2729707,0,2,0
1581952518829,2729273,0,2,0
1581952518930,2728666,0,2,0
1581952519030,2728609,0,2,0
1581952519129,2729190,0,2,0
1581952519229,2729620,0,2,0
1581952519330,2730478,0,2,0
1581952519430,2730871,0,2,0
1581952519530,2730743,0,2,0
1581952519630,2730265,0,2,0
1581952519730,2729950,0,2,0
1581952519830,2730229,0,2,0
1581952519930,2730228,0,2,0
1581952520030,2730890,0,2,0
1581952520130,2731453,0,2,0
1581952520230,2732235,0,2,0
1581952520330,2731826,0,2,0
1581952520431,2731778,0,2,0
1581952520531,2732099,0,2,0
1581952520631,2732449,0,2,0
1581952520731,2733041,0,2,0
1581952520831,2734157,0,2,0
1581952520931,2735154,0,2,0
1581952521031,2735375,0,2,0
1581952521130,2735000,0,2,0
1581952521231,2735313,0,2,0
1581952521331,2736152,0,2,0
1581952521431,2736238,0,2,0
1581952521531,2737319,0,2,0
1581952521631,2738509,0,2,0
1581952521731,2738847,0,2,0
1581952521831,2739346,0,2,0
1581952521930,2739494,0,2,0
1581952522030,2740024,0,2,0
1581952522130,2740733,0,2,0
1581952522230,2741409,0,2,0
1581952522330,2742270,0,2,0
1581952522430,2742577,0,2,0
1581952522530,2742904,0,2,0
1581952522631,2743215,0,2,0
1581952522730,2744012,0,2,0
1581952522831,2745015,0,2,0
1581952522931,2745815,0,2,0
1581952523031,2746774,0,2,0
1581952523131,2747110,0,2,0
1581952523231,2747233,0,2,0
1581952523331,2747302,0,2,0
1581952523431,2747874,0,2,0
1581952523531,2748758,0,2,0
1581952523631,2749965,0,2,0
1581952523731,2750331,0,2,0
1581952523831,2750287,0,2,0
1581952523931,2750713,0,2,0
1581952524031,2751246,0,2,0
1581952524131,2751682,0,2,0
1581952524231,2752647,0,2,0
1581952524331,2753475,0,2,0
1581952524432,2753769,0,2,0
1581952524532,2753720,0,2,0
1581952524632,2753956,0,2,0
1581952524732,2754361,0,2,0
1581952524832,2754899,0,2,0
1581952524932,2755155,0,2,0
1581952525033,2756080,0,2,0
1581952525132,2755752,0,2,0
1581952525232,2755466,0,2,0
1581952525332,2755522,0,2,0
1581952525432,2756037,0,2,0
1581952525533,2755721,0,2,0
1581952525632,2754478,0,2,0
1581952525732,2754569,0,2,0
1581952525832,2755031,0,2,0
1581952525933,2754912,0,2,0
1581952526032,2755351,0,2,0
1581952526133,2755897,0,2,0
1581952526233,2756235,0,2,0
1581952526333,2757056,0,2,0
1581952526433,2758017,0,2,0
1581952526535,2758350,0,2,0
1581952526633,2757743,0,2,0
1581952526733,2757249,0,2,0
1581952526833,2756873,0,2,0
1581952526934,2756879,0,2,0
1581952527033,2757030,0,2,0
1581952527133,2757636,0,2,0
1581952527234,2758206,0,2,0
1581952527334,2757990,0,2,0
1581952527434,2757711,0,2,0
1581952527534,2757591,0,2,0
1581952527634,2757134,0,2,0
1581952527734,2757347,0,2,0
1581952527834,2757810,0,2,0
1581952527934,2757988,0,2,0
1581952528034,2757846,0,2,0
1581952528134,2757170,0,2,0
1581952528234,2757096,0,2,0
1581952528334,2757437,0,2,0
1581952528434,2757497,0,2,0
1581952528534,2757650,0,2,0
1581952528635,2758249,0,2,0
1581952528734,2758364,0,2,0
1581952528835,2758003,0,2,0
1581952528935,2757885,0,2,0
1581952529035,2757656,0,2,0
1581952529135,2758063,0,2,0
1581952529235,2758616,0,2,0
1581952529335,2759165,0,2,0
1581952529435,2759324,0,2,0
1581952529535,2758810,0,2,0
1581952529635,2758872,0,2,0
1581952529735,2759104,0,2,0
1581952529835,2759281,0,2,0
1581952529935,2759989,0,2,0
1581952530035,2760698,0,2,0
1581952530136,2760695,0,2,0
1581952530235,2760813,0,2,0
1581952530335,2760698,0,2,0
1581952530436,2760484,0,2,0
1581952530536,2760610,0,2,0
1581952530636,2760680,0,2,0
1581952530736,2761304,0,2,0
1581952530836,2761148,0,2,0
1581952530937,2760629,0,2,0
1581952531036,2759699,0,2,0
1581952531136,2760621,0,2,0
1581952531236,2760080,0,2,0
1581952531336,2759058,0,2,0
1581952531436,2759049,0,2,0
1581952531536,2757732,0,2,0
1581952531637,2755654,0,2,0
1581952531736,2755075,0,2,0
1581952531836,2755827,0,2,0
1581952531937,2756104,0,2,0
1581952532037,2756115,0,2,0
1581952532137,2753839,0,2,0
1581952532237,2751226,0,2,0
1581952532337,2747944,0,2,0
1581952532440,2745975,0,2,0
1581952532537,2745830,0,2,0
1581952532637,2745920,0,2,0
1581952532737,2745073,0,2,0
1581952532837,2744347,0,2,0
1581952532941,2743417,0,2,0
1581952533038,2742726,0,2,0
1581952533138,2741356,0,2,0
1581952533237,2741066,0,2,0
1581952533337,2740971,0,2,0
1581952533438,2741908,0,2,0
1581952533538,2742437,0,2,0
1581952533638,2743122,0,2,0
1581952533739,2743218,0,2,0
1581952533839,2743689,0,2,0
1581952533939,2744352,0,2,0
1581952534039,2745121,0,2,0
1581952534139,2745189,0,2,0
1581952534239,2744419,0,2,0
1581952534339,2744628,0,2,0
1581952534439,2744885,0,2,0
1581952534539,2744916,0,2,0
1581952534639,2745744,0,2,0
1581952534738,2745741,0,2,0
1581952534839,2744702,0,2,0
1581952534939,2744557,0,2,0
1581952535039,2744638,0,2,0
1581952535139,2745089,0,2,0
1581952535240,2745304,0,2,0
1581952535339,2745890,0,2,0
1581952535439,2746700,0,2,0
1581952535539,2746433,0,2,0
1581952535639,2746178,0,2,0
1581952535739,2746388,0,2,0
1581952535839,2746611,0,2,0
1581952535939,2747207,0,2,0
1581952536039,2747891,0,2,0
1581952536139,2749041,0,2,0
1581952536239,2749848,0,2,0
1581952536339,2750277,0,2,0
1581952536440,2750465,0,2,0
1581952536540,2750994,0,2,0
1581952536640,2751786,0,2,0
1581952536740,2752660,0,2,0
1581952536840,2753535,0,2,0
1581952536940,2754298,0,2,0
1581952537040,2754958,0,2,0
1581952537140,2755266,0,2,0
1581952537240,2755851,0,2,0
1581952537340,2756462,0,2,0
1581952537440,2756479,0,2,0
1581952537540,2757378,0,2,0
1581952537640,2758559,0,2,0
1581952537740,2759747,0,2,0
1581952537840,2759812,0,2,0
1581952537941,2760517,0,2,0
1581952538041,2760768,0,2,0
1581952538141,2761367,0,2,0
1581952538241,2761508,0,2,0
1581952538341,2762455,0,2,0
1581952538441,2762224,0,2,0
1581952538541,2762208,0,2,0
1581952538641,2762248,0,2,0
1581952538741,2762729,0,2,0
1581952538841,2763256,0,2,0
1581952538942,2765019,0,2,0
1581952539041,2768980,0,2,0
1581952539141,2773116,0,2,0
1581952539241,2770460,0,2,0
1581952539342,2764665,0,2,0
1581952539442,2763381,0,2,0
1581952539542,2763935,0,2,0
1581952539642,2765757,0,2,0
1581952539742,2766904,0,2,0
1581952539842,2766135,0,2,0
1581952539942,2765437,0,2,0
1581952540042,2766738,0,2,0
1581952540142,2766141,0,2,0
1581952540242,2765378,0,2,0
1581952540342,2765637,0,2,0
1581952540442,2764845,0,2,0
1581952540543,2763843,0,2,0
1581952540643,2762930,0,2,0
1581952540742,2762456,0,2,0
1581952540843,2762598,0,2,0
1581952540943,2762813,0,2,0
1581952541043,2762818,0,2,0
1581952541143,2762385,0,2,0
1581952541243,2761616,0,2,0
1581952541343,2760811,0,2,0
1581952541443,2760389,0,2,0
1581952541543,2759976,0,2,0
1581952541643,2760101,0,2,0
1581952541743,2760385,0,2,0
1581952541843,2760667,0,2,0
1581952541943,2761376,0,2,0
1581952542043,2760217,0,2,0
1581952542143,2759554,0,2,0
1581952542243,2757396,0,2,0
1581952542343,2758349,0,2,0
1581952542444,2759980,0,2,0
1581952542544,2759763,0,2,0
1581952542644,2759467,0,2,0
1581952542744,2759228,0,2,0
1581952542844,2759069,0,2,0
1581952542944,2757979,0,2,0
1581952543044,2757411,0,2,0
1581952543144,2756668,0,2,0
1581952543244,2756461,0,2,0
1581952543344,2756619,0,2,0
1581952543444,2757585,0,2,0
1581952543545,2757702,0,2,0
1581952543644,2758066,0,2,0
1581952543744,2757694,0,2,0
1581952543844,2756883,0,2,0
1581952543945,2756939,0,2,0
1581952544045,2758599,0,2,0
1581952544145,2757137,0,2,0
1581952544245,2758845,0,2,0
1581952544345,2760103,0,2,0
1581952544445,2757929,0,2,0
1581952544556,2757402,0,2,0
1581952544645,2756878,0,2,0
1581952544745,2757566,0,2,0
1581952544845,2757726,0,2,0
1581952544946,2757457,0,2,0
1581952545045,2754722,0,2,0
1581952545146,2755440,0,2,0
1581952545246,2755428,0,2,0
1581952545345,2753974,0,2,0
1581952545446,2754104,0,2,0
1581952545547,2753825,0,2,0
1581952545646,2752403,0,2,0
1581952545746,2751363,0,2,0
1581952545846,2752267,0,2,0
1581952545946,2751906,0,2,0
1581952546046,2752140,0,2,0
1581952546146,2752557,0,2,0
1581952546246,2753508,0,2,0
1581952546346,2754816,0,2,0
1581952546448,2754390,0,2,0
1581952546548,2753919,0,2,0
1581952546647,2753829,0,2,0
1581952546746,2753448,0,2,0
1581952546847,2753228,0,2,0
1581952546950,2749429,0,2,0
1581952547048,2742383,0,2,0
1581952547147,2739595,0,2,0
1581952547248,2739699,0,2,0
1581952547348,2740748,0,2,0
1581952547448,2740815,0,2,0
1581952547548,2740532,0,2,0
1581952547648,2740451,0,2,0
1581952547748,2740356,0,2,0
1581952547848,2740205,0,2,0
1581952547948,2740211,0,2,0
1581952548049,2740679,0,2,0
1581952548149,2740931,0,2,0
1581952548249,2740490,0,2,0
1581952548349,2739803,0,2,0
1581952548449,2738622,0,2,0
1581952548549,2735718,0,2,0
1581952548649,2735496,0,2,0
1581952548749,2734723,0,2,0
1581952548849,2733650,0,2,0
1581952548949,2733401,0,2,0
1581952549050,2733808,0,2,0
1581952549149,2730011,0,2,0
1581952549250,2724764,0,2,0
1581952549350,2722604,0,2,0
1581952549450,2722535,0,2,0
1581952549550,2722526,0,2,0
1581952549650,2721645,0,2,0
1581952549750,2721054,0,2,0
1581952549850,2721749,0,2,0
1581952549949,2721924,0,2,0
1581952550050,2721443,0,2,0
1581952550150,2720715,0,2,0
1581952550250,2719802,0,2,0
1581952550350,2719358,0,2,0
1581952550451,2720643,0,2,0
1581952550551,2721526,0,2,0
1581952550651,2721725,0,2,0
1581952550751,2720831,0,2,0
1581952550851,2720632,0,2,0
1581952550950,2720182,0,2,0
1581952551051,2719963,0,2,0
1581952551151,2720987,0,2,0
1581952551251,2721698,0,2,0
1581952551351,2721632,0,2,0
1581952551451,2721335,0,2,0
1581952551551,2719790,0,2,0
1581952551651,2718120,0,2,0
1581952551751,2716806,0,2,0
1581952551851,2715815,0,2,0
1581952551951,2715288,0,2,0
1581952552052,2715249,0,2,0
1581952552151,2715071,0,2,0
1581952552252,2713845,0,2,0
1581952552352,2713265,0,2,0
1581952552452,2713011,0,2,0
1581952552552,2713458,0,2,0
1581952552652,2714527,0,2,0
1581952552752,2715640,0,2,0
1581952552852,2715218,0,2,0
1581952552952,2715708,0,2,0
1581952553052,2716953,0,2,0
1581952553152,2717751,0,2,0
1581952553252,2717294,0,2,0
1581952553352,2717562,0,2,0
1581952553452,2718709,0,2,0
1581952553553,2719614,0,2,0
1581952553653,2721221,0,2,0
1581952553751,2722373,0,2,0
1581952553851,2723140,0,2,0
1581952553951,2722944,0,2,0
1581952554051,2722987,0,2,0
1581952554151,2723243,0,2,0
1581952554251,2723794,0,2,0
1581952554352,2724668,0,2,0
1581952554452,2725719,0,2,0
1581952554552,2726548,0,2,0
1581952554652,2726903,0,2,0
1581952554752,2726425,0,2,0
1581952554852,2725855,0,2,0
1581952554952,2725576,0,2,0
1581952555052,2725725,0,2,0
1581952555152,2726989,0,2,0
1581952555252,2727975,0,2,0
1581952555352,2727629,0,2,0
1581952555452,2726377,0,2,0
1581952555553,2726057,0,2,0
1581952555652,2725450,0,2,0
1581952555752,2724422,0,2,0
1581952555852,2723439,0,2,0
1581952555953,2722499,0,2,0
1581952556053,2722158,0,2,0
1581952556153,2720907,0,2,0
1581952556253,2719751,0,2,0
1581952556353,2718868,0,2,0
1581952556453,2718268,0,2,0
1581952556553,2717991,0,2,0
1581952556653,2717903,0,2,0
1581952556753,2718226,0,2,0
1581952556853,2718125,0,2,0
1581952556954,2717264,0,2,0
1581952557053,2717121,0,2,0
1581952557153,2716893,0,2,0
1581952557254,2716655,0,2,0
1581952557353,2717069,0,2,0
1581952557454,2717621,0,2,0
1581952557554,2717791,0,2,0
1581952557654,2717409,0,2,0
1581952557754,2716891,0,2,0
1581952557854,2716328,0,2,0
1581952557954,2715804,0,2,0
1581952558054,2715059,0,2,0
1581952558154,2715420,0,2,0
1581952558254,2715396,0,2,0
1581952558354,2715496,0,2,0
1581952558454,2714025,0,2,0
1581952558554,2712828,0,2,0
1581952558655,2712316,0,2,0
1581952558754,2711721,0,2,0
1581952558855,2711811,0,2,0
1581952558955,2711664,0,2,0
1581952559055,2711895,0,2,0
1581952559155,2711705,0,2,0
1581952559255,2709680,0,2,0
1581952559355,2710096,0,2,0
1581952559455,2709862,0,2,0
1581952559555,2711719,0,2,0
1581952559655,2712706,0,2,0
1581952559755,2714599,0,2,0
1581952559855,2715990,0,2,0
1581952559955,2717041,0,2,0
1581952560055,2717519,0,2,0
1581952560156,2717402,0,2,0
1581952560256,2717355,0,2,0
1581952560355,2717676,0,2,0
1581952560456,2717993,0,2,0
1581952560556,2718719,0,2,0
1581952560656,2720372,0,2,0
1581952560756,2721845,0,2,0
1581952560856,2722241,0,2,0
1581952560957,2722526,0,2,0
1581952561056,2722627,0,2,0
1581952561156,2723113,0,2,0
1581952561256,2723636,0,2,0
1581952561356,2724552,0,2,0
1581952561456,2725346,0,2,0
1581952561557,2726267,0,2,0
1581952561657,2726228,0,2,0
1581952561756,2725700,0,2,0
1581952561857,2725684,0,2,0
1581952561957,2725640,0,2,0
1581952562057,2725939,0,2,0
1581952562157,2726920,0,2,0
1581952562257,2727662,0,2,0
1581952562357,2727145,0,2,0
1581952562460,2726833,0,2,0
1581952562557,2726756,0,2,0
1581952562657,2726753,0,2,0
1581952562757,2727765,0,2,0
1581952562857,2729595,0,2,0
1581952562959,2729803,0,2,0
1581952563057,2730319,0,2,0
1581952563158,2730678,0,2,0
1581952563257,2730089,0,2,0
1581952563358,2726665,0,2,0
1581952563458,2725080,0,2,0
1581952563558,2725545,0,2,0
1581952563658,2725998,0,2,0
1581952563758,2725954,0,2,0
1581952563858,2725977,0,2,0
1581952563958,2725075,0,2,0
1581952564058,2725727,0,2,0
1581952564158,2725973,0,2,0
1581952564258,2725087,0,2,0
1581952564358,2724550,0,2,0
1581952564458,2725050,0,2,0
1581952564558,2725960,0,2,0
1581952564659,2725480,0,2,0
1581952564758,2725512,0,2,0
1581952564859,2726626,0,2,0
1581952564961,2727601,0,2,0
1581952565059,2727965,0,2,0
1581952565159,2728499,0,2,0
1581952565259,2729385,0,2,0
1581952565359,2730329,0,2,0
1581952565459,2729776,0,2,0
1581952565560,2728252,0,2,0
1581952565659,2728465,0,2,0
1581952565759,2729646,0,2,0
1581952565859,2730986,0,2,0
1581952565959,2731826,0,2,0
1581952566059,2732262,0,2,0
1581952566159,2733677,0,2,0
1581952566259,2734536,0,2,0
1581952566361,2734023,0,2,0
1581952566461,2734189,0,2,0
1581952566561,2734732,0,2,0
1581952566661,2735356,0,2,0
1581952566761,2736430,0,2,0
1581952566861,2737541,0,2,0
1581952566961,2738695,0,2,0
1581952567061,2739200,0,2,0
1581952567160,2739629,0,2,0
1581952567260,2740325,0,2,0
1581952567360,2740720,0,2,0
1581952567460,2741719,0,2,0
1581952567561,2742558,0,2,0
1581952567660,2743897,0,2,0
1581952567760,2744781,0,2,0
1581952567860,2744443,0,2,0
1581952567961,2744677,0,2,0
1581952568061,2744988,0,2,0
1581952568161,2745176,0,2,0
1581952568261,2745757,0,2,0
1581952568361,2746304,0,2,0
1581952568461,2746738,0,2,0
1581952568562,2746418,0,2,0
1581952568661,2745879,0,2,0
1581952568761,2745657,0,2,0
1581952568861,2745598,0,2,0
1581952568962,2745622,0,2,0
1581952569061,2745708,0,2,0
1581952569161,2746121,0,2,0
1581952569261,2746005,0,2,0
1581952569362,2744792,0,2,0
1581952569462,2744393,0,2,0
1581952569562,2744098,0,2,0
1581952569662,2743528,0,2,0
1581952569762,2743839,0,2,0
1581952569862,2744191,0,2,0
1581952569962,2744148,0,2,0
1581952570062,2743130,0,2,0
1581952570162,2742339,0,2,0
1581952570262,2741794,0,2,0
1581952570362,2741297,0,2,0
1581952570462,2740889,0,2,0
1581952570562,2741553,0,2,0
1581952570663,2741912,0,2,0
1581952570763,2741470,0,2,0
1581952570863,2741170,0,2,0
1581952570963,2740663,0,2,0
1581952571063,2740612,0,2,0
1581952571163,2740436,0,2,0
1581952571263,2740240,0,2,0
1581952571363,2740926,0,2,0
1581952571463,2740277,0,2,0
1581952571563,2738814,0,2,0
1581952571663,2738039,0,2,0
1581952571763,2736885,0,2,0
1581952571863,2736445,0,2,0
1581952571963,2736208,0,2,0
1581952572063,2736252,0,2,0
1581952572163,2736494,0,2,0
1581952572263,2735946,0,2,0
1581952572363,2734562,0,2,0
1581952572464,2733324,0,2,0
1581952572564,2732676,0,2,0
1581952572664,2732379,0,2,0
1581952572764,2732313,0,2,0
1581952572864,2732773,0,2,0
1581952572964,2733237,0,2,0
1581952573064,2733838,0,2,0
1581952573164,2733890,0,2,0
1581952573264,2733031,0,2,0
1581952573364,2732378,0,2,0
1581952573464,2732264,0,2,0
1581952573564,2732538,0,2,0
1581952573664,2732967,0,2,0
1581952573764,2733683,0,2,0
1581952573864,2734670,0,2,0
1581952573965,2735745,0,2,0
1581952574065,2735944,0,2,0
1581952574165,2736862,0,2,0
1581952574265,2737917,0,2,0
1581952574366,2736076,0,2,0
1581952574466,2735210,0,2,0
1581952574566,2735180,0,2,0
1581952574666,2734377,0,2,0
1581952574766,2732489,0,2,0
1581952574866,2730438,0,2,0
1581952574968,2723715,0,2,0
1581952575066,2722701,0,2,0
1581952575168,2724219,0,2,0
1581952575266,2726270,0,2,0
1581952575367,2727703,0,2,0
1581952575467,2730412,0,2,0
1581952575568,2732648,0,2,0
1581952575668,2733074,0,2,0
1581952575768,2733501,0,2,0
1581952575867,2733741,0,2,0
1581952575968,2734412,0,2,0
1581952576068,2735183,0,2,0
1581952576168,2736275,0,2,0
1581952576268,2738407,0,2,0
1581952576368,2740492,0,2,0
1581952576470,2741347,0,2,0
1581952576568,2742505,0,2,0
1581952576668,2743744,0,2,0
1581952576768,2744557,0,2,0
1581952576868,2745910,0,2,0
1581952576969,2747523,0,2,0
1581952577068,2748885,0,2,0
1581952577168,2749968,0,2,0
1581952577268,2750908,0,2,0
1581952577368,2751749,0,2,0
1581952577468,2752320,0,2,0
1581952577569,2753711,0,2,0
1581952577669,2754578,0,2,0
1581952577769,2755778,0,2,0
1581952577869,2755851,0,2,0
1581952577969,2755751,0,2,0
1581952578069,2755450,0,2,0
1581952578169,2755762,0,2,0
1581952578269,2755960,0,2,0
1581952578369,2756120,0,2,0
1581952578469,2756454,0,2,0
1581952578569,2756149,0,2,0
1581952578669,2755022,0,2,0
1581952578769,2754697,0,2,0
1581952578868,2753964,0,2,0
1581952578968,2753747,0,2,0
1581952579068,2753290,0,2,0
1581952579168,2753487,0,2,0
1581952579268,2753505,0,2,0
1581952579368,2752548,0,2,0
1581952579468,2751580,0,2,0
1581952579569,2751461,0,2,0
1581952579669,2750930,0,2,0
1581952579768,2750349,0,2,0
1581952579870,2749022,0,2,0
1581952579969,2749432,0,2,0
1581952580069,2751048,0,2,0
1581952580170,2749872,0,2,0
1581952580270,2749431,0,2,0
1581952580369,2749635,0,2,0
1581952580470,2748888,0,2,0
1581952580570,2749408,0,2,0
1581952580670,2749968,0,2,0
1581952580770,2751342,0,2,0
1581952580870,2752015,0,2,0
1581952580971,2751562,0,2,0
1581952581071,2750941,0,2,0
1581952581171,2750366,0,2,0
1581952581271,2749975,0,2,0
1581952581371,2749484,0,2,0
1581952581471,2749528,0,2,0
1581952581571,2749707,0,2,0
1581952581671,2749673,0,2,0
1581952581771,2748654,0,2,0
1581952581870,2747359,0,2,0
1581952581971,2746148,0,2,0
1581952582071,2745501,0,2,0
1581952582171,2744930,0,2,0
1581952582272,2745151,0,2,0
1581952582372,2745403,0,2,0
1581952582472,2745333,0,2,0
1581952582572,2744569,0,2,0
1581952582672,2743625,0,2,0
1581952582772,2743106,0,2,0
1581952582871,2743128,0,2,0
1581952582972,2743306,0,2,0
1581952583071,2743778,0,2,0
1581952583171,2744448,0,2,0
1581952583271,2744949,0,2,0
1581952583371,2744594,0,2,0
1581952583471,2744440,0,2,0
1581952583571,2744491,0,2,0
1581952583671,2744330,0,2,0
1581952583771,2744943,0,2,0
1581952583871,2745625,0,2,0
1581952583972,2746929,0,2,0
1581952584071,2747097,0,2,0
1581952584171,2746781,0,2,0
1581952584271,2746528,0,2,0
1581952584372,2746478,0,2,0
1581952584472,2746654,0,2,0
1581952584572,2747237,0,2,0
1581952584672,2747868,0,2,0
1581952584772,2747912,0,2,0
1581952584872,2747383,0,2,0
1581952584972,2747128,0,2,0
1581952585072,2747154,0,2,0
1581952585172,2747234,0,2,0
1581952585272,2747466,0,2,0
1581952585372,2748076,0,2,0
1581952585472,2748244,0,2,0
1581952585573,2747867,0,2,0
1581952585672,2747595,0,2,0
1581952585773,2747475,0,2,0
1581952585872,2748024,0,2,0
1581952585973,2748945,0,2,0
1581952586073,2749707,0,2,0
1581952586173,2749458,0,2,0
1581952586273,2749267,0,2,0
1581952586373,2749292,0,2,0
1581952586473,2749539,0,2,0
1581952586573,2749747,0,2,0
1581952586673,2750705,0,2,0
1581952586773,2751470,0,2,0
1581952586873,2751387,0,2,0
1581952586974,2751523,0,2,0
1581952587073,2751940,0,2,0
1581952587173,2752217,0,2,0
1581952587274,2752645,0,2,0
1581952587373,2753339,0,2,0
1581952587474,2754036,0,2,0
1581952587574,2754365,0,2,0
1581952587674,2754178,0,2,0
1581952587774,2754290,0,2,0
1581952587874,2754378,0,2,0
1581952587974,2754621,0,2,0
1581952588074,2754990,0,2,0
1581952588174,2755749,0,2,0
1581952588274,2756209,0,2,0
1581952588374,2755764,0,2,0
1581952588475,2755420,0,2,0
1581952588574,2754589,0,2,0
1581952588675,2753959,0,2,0
1581952588774,2753561,0,2,0
1581952588875,2754695,0,2,0
1581952588975,2754939,0,2,0
1581952589075,2754473,0,2,0
1581952589175,2752783,0,2,0
1581952589275,2751887,0,2,0
1581952589375,2752619,0,2,0
1581952589475,2753197,0,2,0
1581952589575,2752891,0,2,0
1581952589675,2753323,0,2,0
1581952589775,2753699,0,2,0
1581952589875,2754228,0,2,0
1581952589975,2753872,0,2,0
1581952590075,2753274,0,2,0
1581952590176,2752993,0,2,0
1581952590276,2753274,0,2,0
1581952590375,2753833,0,2,0
1581952590476,2754687,0,2,0
1581952590576,2755612,0,2,0
1581952590676,2755899,0,2,0
1581952590776,2755655,0,2,0
1581952590876,2755867,0,2,0
1581952590977,2755913,0,2,0
1581952591076,2755638,0,2,0
1581952591176,2755441,0,2,0
1581952591276,2756030,0,2,0
1581952591376,2756379,0,2,0
1581952591476,2756316,0,2,0
1581952591577,2755624,0,2,0
1581952591677,2755531,0,2,0
1581952591776,2755473,0,2,0
1581952591877,2755736,0,2,0
1581952591977,2755650,0,2,0
1581952592077,2755957,0,2,0
1581952592177,2755862,0,2,0
1581952592277,2754982,0,2,0
1581952592377,2754666,0,2,0
1581952592480,2754088,0,2,0
1581952592577,2753904,0,2,0
1581952592677,2753949,0,2,0
1581952592777,2754371,0,2,0
1581952592877,2754159,0,2,0
1581952592979,2753653,0,2,0
1581952593077,2752883,0,2,0
1581952593178,2751862,0,2,0
1581952593278,2751598,0,2,0
1581952593378,2752656,0,2,0
1581952593478,2753396,0,2,0
1581952593578,2753732,0,2,0
1581952593678,2753706,0,2,0
1581952593778,2753454,0,2,0
1581952593878,2753521,0,2,0
1581952593978,2753680,0,2,0
1581952594078,2754197,0,2,0
1581952594178,2754433,0,2,0
1581952594278,2754956,0,2,0
1581952594379,2754601,0,2,0
1581952594479,2754060,0,2,0
1581952594579,2754041,0,2,0
1581952594679,2753731,0,2,0
1581952594778,2754009,0,2,0
1581952594879,2754374,0,2,0
1581952594979,2754586,0,2,0
1581952595079,2753831,0,2,0
1581952595179,2753088,0,2,0
1581952595279,2752152,0,2,0
1581952595379,2750735,0,2,0
1581952595479,2750874,0,2,0
1581952595579,2750612,0,2,0
1581952595679,2750743,0,2,0
1581952595779,2750085,0,2,0
1581952595879,2749705,0,2,0
1581952595979,2749038,0,2,0
1581952596079,2749208,0,2,0
1581952596179,2748945,0,2,0
1581952596279,2748950,0,2,0
1581952596379,2749800,0,2,0
1581952596480,2750723,0,2,0
1581952596581,2750725,0,2,0
1581952596680,2749900,0,2,0
1581952596780,2749938,0,2,0
1581952596880,2749877,0,2,0
1581952596980,2750047,0,2,0
1581952597080,2750362,0,2,0
1581952597180,2750795,0,2,0
1581952597280,2751781,0,2,0
1581952597380,2752810,0,2,0
1581952597480,2755380,0,2,0
1581952597581,2756522,0,2,0
1581952597681,2757390,0,2,0
1581952597780,2758055,0,2,0
1581952597881,2756325,0,2,0
1581952597981,2753569,0,2,0
1581952598081,2753160,0,2,0
1581952598181,2753165,0,2,0
1581952598281,2750754,0,2,0
1581952598381,2746682,0,2,0
1581952598481,2745706,0,2,0
1581952598581,2743765,0,2,0
1581952598682,2743026,0,2,0
1581952598782,2740655,0,2,0
1581952598882,2740942,0,2,0
1581952598984,2739183,0,2,0
1581952599084,2738224,0,2,0
1581952599183,2738089,0,2,0
1581952599283,2735107,0,2,0
1581952599383,2734660,0,2,0
1581952599483,2734402,0,2,0
1581952599583,2734359,0,2,0
1581952599683,2731991,0,2,0
1581952599783,2729140,0,2,0
1581952599883,2728308,0,2,0
1581952599983,2729291,0,2,0
1581952600083,2730720,0,2,0
1581952600184,2733312,0,2,0
1581952600284,2734538,0,2,0
1581952600384,2737166,0,2,0
1581952600484,2738400,0,2,0
1581952600584,2738701,0,2,0
1581952600683,2734030,0,2,0
1581952600784,2734748,0,2,0
1581952600884,2737758,0,2,0
1581952600984,2741181,0,2,0
1581952601084,2744242,0,2,0
1581952601184,2746940,0,2,0
1581952601284,2747529,0,2,0
1581952601384,2748189,0,2,0
1581952601484,2748874,0,2,0
1581952601585,2751194,0,2,0
1581952601684,2754288,0,2,0
1581952601785,2755723,0,2,0
1581952601885,2755434,0,2,0
1581952601985,2754880,0,2,0
1581952602085,2754808,0,2,0
1581952602185,2755513,0,2,0
1581952602285,2755900,0,2,0
1581952602385,2756049,0,2,0
1581952602486,2755350,0,2,0
1581952602585,2755159,0,2,0
1581952602684,2754847,0,2,0
1581952602785,2754649,0,2,0
1581952602885,2754401,0,2,0
1581952602986,2754478,0,2,0
1581952603086,2754041,0,2,0
1581952603185,2753350,0,2,0
1581952603286,2753096,0,2,0
1581952603387,2752875,0,2,0
1581952603486,2753086,0,2,0
1581952603586,2753479,0,2,0
1581952603685,2753725,0,2,0
1581952603786,2753094,0,2,0
1581952603886,2752418,0,2,0
1581952603986,2752042,0,2,0
1581952604086,2751929,0,2,0
1581952604186,2751887,0,2,0
1581952604286,2750932,0,2,0
1581952604387,2750641,0,2,0
1581952604489,2749770,0,2,0
1581952604603,2748398,0,2,0
1581952604686,2747378,0,2,0
1581952604787,2746832,0,2,0
1581952604887,2747108,0,2,0
1581952604989,2747112,0,2,0
1581952605087,2747158,0,2,0
1581952605188,2746461,0,2,0
1581952605287,2744611,0,2,0
1581952605387,2743505,0,2,0
1581952605487,2742505,0,2,0
1581952605588,2741550,0,2,0
1581952605687,2741156,0,2,0
1581952605788,2741644,0,2,0
1581952605888,2741482,0,2,0
1581952605988,2741199,0,2,0
1581952606091,2739683,0,2,0
1581952606188,2737621,0,2,0
1581952606288,2736607,0,2,0
1581952606388,2735191,0,2,0
1581952606490,2734809,0,2,0
1581952606589,2733889,0,2,0
1581952606688,2734086,0,2,0
1581952606788,2734803,0,2,0
1581952606888,2735413,0,2,0
1581952606989,2734089,0,2,0
1581952607088,2733557,0,2,0
1581952607188,2733160,0,2,0
1581952607288,2732477,0,2,0
1581952607388,2732021,0,2,0
1581952607489,2733649,0,2,0
1581952607589,2735167,0,2,0
1581952607688,2737603,0,2,0
1581952607789,2739168,0,2,0
1581952607889,2739470,0,2,0
1581952607989,2739734,0,2,0
1581952608089,2740489,0,2,0
1581952608189,2741480,0,2,0
1581952608289,2742462,0,2,0
1581952608389,2743811,0,2,0
1581952608490,2745346,0,2,0
1581952608589,2746655,0,2,0
1581952608688,2747125,0,2,0
1581952608789,2747373,0,2,0
1581952608889,2748428,0,2,0
1581952608990,2749227,0,2,0
1581952609090,2750199,0,2,0
1581952609190,2751246,0,2,0
1581952609290,2752211,0,2,0
1581952609390,2752791,0,2,0
1581952609490,2753287,0,2,0
1581952609590,2753549,0,2,0
1581952609689,2754009,0,2,0
1581952609789,2754583,0,2,0
1581952609889,2755485,0,2,0
1581952609989,2756415,0,2,0
1581952610089,2757550,0,2,0
1581952610189,2757780,0,2,0
1581952610289,2757712,0,2,0
1581952610389,2757793,0,2,0
1581952610490,2758521,0,2,0
1581952610589,2759224,0,2,0
1581952610689,2759817,0,2,0
1581952610789,2759968,0,2,0
1581952610889,2759680,0,2,0
1581952610990,2761090,0,2,0
1581952611089,2761834,0,2,0
1581952611189,2762613,0,2,0
1581952611289,2763012,0,2,0
1581952611389,2763519,0,2,0
1581952611490,2764538,0,2,0
1581952611590,2764878,0,2,0
1581952611690,2764780,0,2,0
1581952611790,2764804,0,2,0
1581952611890,2764341,0,2,0
1581952611990,2764725,0,2,0
1581952612090,2765085,0,2,0
1581952612190,2765391,0,2,0
1581952612290,2765747,0,2,0
1581952612390,2765062,0,2,0
1581952612491,2763872,0,2,0
1581952612590,2763092,0,2,0
1581952612691,2762872,0,2,0
1581952612790,2762766,0,2,0
1581952612891,2762775,0,2,0
1581952612991,2762891,0,2,0
1581952613091,2762937,0,2,0
1581952613191,2762497,0,2,0
1581952613291,2761584,0,2,0
1581952613391,2760787,0,2,0
1581952613491,2760655,0,2,0
1581952613591,2760718,0,2,0
1581952613691,2762595,0,2,0
1581952613791,2764311,0,2,0
1581952613891,2761976,0,2,0
1581952613992,2756083,0,2,0
1581952614091,2754279,0,2,0
1581952614191,2753576,0,2,0
1581952614291,2753769,0,2,0
1581952614392,2753270,0,2,0
1581952614492,2752977,0,2,0
1581952614592,2753440,0,2,0
1581952614692,2753544,0,2,0
1581952614792,2754361,0,2,0
1581952614892,2754411,0,2,0
1581952614992,2753893,0,2,0
1581952615092,2753600,0,2,0
1581952615193,2753442,0,2,0
1581952615292,2753372,0,2,0
1581952615392,2753551,0,2,0
1581952615493,2754057,0,2,0
1581952615593,2754871,0,2,0
1581952615693,2755538,0,2,0
1581952615793,2755819,0,2,0
1581952615892,2755515,0,2,0
1581952615993,2755064,0,2,0
1581952616093,2754949,0,2,0
1581952616193,2754816,0,2,0
1581952616293,2755408,0,2,0
1581952616393,2756074,0,2,0
1581952616493,2757031,0,2,0
1581952616593,2757654,0,2,0
1581952616693,2757735,0,2,0
1581952616793,2757828,0,2,0
1581952616893,2757653,0,2,0
1581952616994,2757910,0,2,0
1581952617093,2758604,0,2,0
1581952617193,2759234,0,2,0
1581952617294,2760064,0,2,0
1581952617394,2763055,0,2,0
1581952617494,2764628,0,2,0
1581952617594,2763820,0,2,0
1581952617694,2762933,0,2,0
1581952617794,2762140,0,2,0
1581952617894,2756367,0,2,0
1581952617994,2753608,0,2,0
1581952618094,2755983,0,2,0
1581952618194,2759161,0,2,0
1581952618294,2758823,0,2,0
1581952618394,2758050,0,2,0
1581952618495,2757631,0,2,0
1581952618594,2757807,0,2,0
1581952618695,2758494,0,2,0
1581952618795,2758789,0,2,0
1581952618895,2758548,0,2,0
1581952618995,2757966,0,2,0
1581952619095,2757071,0,2,0
1581952619195,2754840,0,2,0
1581952619295,2754250,0,2,0
1581952619395,2752987,0,2,0
1581952619495,2753343,0,2,0
1581952619595,2752833,0,2,0
1581952619695,2751563,0,2,0
1581952619795,2749535,0,2,0
1581952619895,2748661,0,2,0
1581952619995,2747470,0,2,0
1581952620095,2747007,0,2,0
1581952620196,2747136,0,2,0
1581952620296,2745396,0,2,0
1581952620396,2743865,0,2,0
1581952620497,2741115,0,2,0
1581952620596,2738863,0,2,0
1581952620696,2733300,0,2,0
1581952620796,2729214,0,2,0
1581952620896,2727076,0,2,0
1581952620997,2725354,0,2,0
1581952621096,2724545,0,2,0
1581952621197,2722982,0,2,0
1581952621296,2720984,0,2,0
1581952621396,2718014,0,2,0
1581952621496,2715533,0,2,0
1581952621596,2713954,0,2,0
1581952621697,2712283,0,2,0
1581952621797,2709812,0,2,0
1581952621897,2706334,0,2,0
1581952621997,2702344,0,2,0
1581952622099,2699463,2,2,b
1581952622198,2695457,2,2,b
1581952622298,2691439,2,2,b
1581952622398,2687903,2,2,b
1581952622500,2685581,2,2,b
1581952622598,2683322,2,2,b
1581952622698,2680254,2,2,b
1581952622798,2677176,2,2,b
1581952622898,2673686,2,2,b
1581952622998,2672174,2,2,b
1581952623098,2673966,2,2,b
1581952623199,2678243,2,2,b
1581952623299,2681244,2,2,b
1581952623400,2683496,2,2,b
1581952623500,2685401,2,2,b
1581952623599,2687822,2,2,b
1581952623699,2690352,2,2,b
1581952623799,2692743,2,2,b
1581952623899,2694408,2,2,b
1581952624000,2695958,2,2,b
1581952624100,2696671,2,2,b
1581952624199,2697423,2,2,b
1581952624300,2698712,2,2,b
1581952624400,2699253,2,2,b
1581952624500,2698211,2,2,b
1581952624600,2698267,2,2,b
1581952624700,2697867,2,2,b
1581952624800,2697984,2,2,b
1581952624900,2698638,2,2,b
1581952625000,2699493,2,2,b
1581952625101,2699729,2,2,b
1581952625201,2699007,2,2,b
1581952625300,2697933,2,2,b
1581952625400,2697759,2,2,b
1581952625501,2698126,2,2,b
1581952625601,2698553,2,2,b
1581952625701,2698971,2,2,b
1581952625801,2698121,2,2,b
1581952625901,2697179,2,2,b
1581952626001,2697376,2,2,b
1581952626101,2697725,2,2,b
1581952626201,2698009,2,2,b
1581952626301,2695939,2,2,b
1581952626401,2694989,2,2,b
1581952626501,2694721,2,2,b
1581952626602,2696689,2,2,b
1581952626701,2700164,2,2,b
1581952626801,2703334,2,2,b
1581952626901,2706851,2,2,b
1581952627002,2709564,0,2,0
1581952627102,2712009,0,2,0
1581952627202,2713713,0,2,0
1581952627302,2715006,0,2,0
1581952627402,2716518,0,2,0
1581952627502,2718517,0,2,0
1581952627602,2719897,0,2,0
1581952627702,2722399,0,2,0
1581952627802,2726728,0,2,0
1581952627902,2729142,0,2,0
1581952628002,2730843,0,2,0
1581952628102,2732486,0,2,0
1581952628202,2734217,0,2,0
1581952628302,2735939,0,2,0
1581952628402,2737283,0,2,0
1581952628503,2738511,0,2,0
1581952628603,2737680,0,2,0
1581952628703,2738247,0,2,0
1581952628802,2740542,0,2,0
1581952628903,2743105,0,2,0
1581952629003,2745243,0,2,0
1581952629103,2746703,0,2,0
1581952629203,2747467,0,2,0
1581952629303,2747793,0,2,0
1581952629403,2748048,0,2,0
1581952629503,2748541,0,2,0
1581952629603,2749168,0,2,0
1581952629703,2749830,0,2,0
1581952629803,2750665,0,2,0
1581952629903,2751339,0,2,0
1581952630004,2752595,0,2,0
1581952630104,2753233,0,2,0
1581952630204,2753360,0,2,0
1581952630304,2753807,0,2,0
1581952630404,2754005,0,2,0
1581952630504,2754568,0,2,0
1581952630604,2755598,0,2,0
1581952630704,2756679,0,2,0
1581952630804,2757851,0,2,0
1581952630904,2757514,0,2,0
1581952631004,2757036,0,2,0
1581952631104,2757105,0,2,0
1581952631204,2756856,0,2,0
1581952631304,2756625,0,2,0
1581952631404,2757302,0,2,0
1581952631506,2757560,0,2,0
1581952631606,2757464,0,2,0
1581952631706,2757064,0,2,0
1581952631806,2756543,0,2,0
1581952631904,2756367,0,2,0
1581952632004,2755975,0,2,0
1581952632104,2755934,0,2,0
1581952632204,2756086,0,2,0
1581952632304,2756954,0,2,0
1581952632404,2757764,0,2,0
1581952632504,2757796,0,2,0
1581952632604,2757357,0,2,0
1581952632704,2757177,0,2,0
1581952632804,2757020,0,2,0
1581952632904,2756917,0,2,0
1581952633004,2756877,0,2,0
1581952633104,2757565,0,2,0
1581952633204,2757626,0,2,0
1581952633304,2757373,0,2,0
1581952633404,2757357,0,2,0
1581952633504,2756868,0,2,0
1581952633604,2756178,0,2,0
1581952633705,2755761,0,2,0
1581952633804,2755480,0,2,0
1581952633905,2755820,0,2,0
1581952634005,2756637,0,2,0
1581952634105,2758328,0,2,0
1581952634205,2759356,0,2,0
1581952634305,2758764,0,2,0
1581952634405,2756360,0,2,0
1581952634505,2754346,0,2,0
1581952634605,2752939,0,2,0
1581952634705,2751194,0,2,0
1581952634805,2748006,0,2,0
1581952634905,2745911,0,2,0
1581952635006,2743907,0,2,0
1581952635106,2740927,0,2,0
1581952635206,2738010,0,2,0
1581952635306,2735611,0,2,0
1581952635406,2731010,0,2,0
1581952635506,2727426,0,2,0
1581952635606,2727395,0,2,0
1581952635706,2727956,0,2,0
1581952635806,2729701,0,2,0
1581952635906,2729263,0,2,0
1581952636006,2727530,0,2,0
1581952636106,2725219,0,2,0
1581952636207,2721701,0,2,0
1581952636306,2718983,0,2,0
1581952636406,2717128,0,2,0
1581952636509,2715923,0,2,0
1581952636607,2715093,0,2,0
1581952636707,2712661,0,2,0
1581952636807,2710099,0,2,0
1581952636907,2707611,0,2,0
1581952637009,2702980,0,2,0
1581952637108,2699152,0,2,0
1581952637207,2695521,0,2,0
1581952637307,2692601,0,2,0
1581952637407,2690331,0,2,0
1581952637507,2688533,0,2,0
1581952637607,2687165,0,2,0
1581952637707,2685971,0,2,0
1581952637808,2686715,0,2,0
1581952637907,2686136,0,2,0
1581952638007,2684545,2,2,b
1581952638107,2683508,2,2,b
1581952638208,2684401,2,2,b
1581952638308,2686118,2,2,b
1581952638408,2687575,2,2,b
1581952638511,2688606,2,2,b
1581952638608,2689084,2,2,b
1581952638708,2688921,2,2,b
1581952638808,2689099,2,2,b
1581952638908,2690223,2,2,b
1581952639008,2691289,2,2,b
1581952639108,2692843,2,2,b
1581952639208,2694390,2,2,b
1581952639309,2695899,2,2,b
1581952639409,2696932,2,2,b
1581952639509,2695845,2,2,b
1581952639609,2692973,2,2,b
1581952639709,2692670,2,2,b
1581952639809,2692968,2,2,b
1581952639909,2693606,2,2,b
1581952640009,2694098,2,2,b
1581952640109,2694354,2,2,b
1581952640210,2694883,2,2,b
1581952640310,2695091,2,2,b
1581952640410,2694745,2,2,b
1581952640511,2693897,2,2,b
1581952640611,2694006,2,2,b
1581952640711,2694311,2,2,b
1581952640811,2694549,2,2,b
1581952640911,2695599,2,2,b
1581952641011,2696066,2,2,b
1581952641111,2695859,2,2,b
1581952641211,2694231,2,2,b
1581952641311,2692527,2,2,b
1581952641411,2691095,2,2,b
1581952641511,2690840,2,2,b
1581952641611,2691123,2,2,b
1581952641711,2692160,2,2,b
1581952641813,2692341,2,2,b
1581952641912,2691701,2,2,b
1581952642012,2691086,2,2,b
1581952642112,2690489,2,2,b
1581952642212,2690182,2,2,b
1581952642312,2688655,2,2,b
1581952642412,2687115,2,2,b
1581952642512,2686702,2,2,b
1581952642612,2686656,2,2,b
1581952642712,2686573,2,2,b
1581952642812,2687028,2,2,b
1581952642912,2687171,2,2,b
1581952643012,2688649,2,2,b
1581952643112,2691272,2,2,b
1581952643212,2693740,2,2,b
1581952643312,2695690,2,2,b
1581952643412,2696770,2,2,b
1581952643513,2696961,2,2,b
1581952643613,2696067,2,2,b
1581952643713,2695184,2,2,b
1581952643813,2693590,2,2,b
1581952643913,2692034,2,2,b
1581952644013,2690747,2,2,b
1581952644113,2688181,2,2,b
1581952644213,2685978,2,2,b
1581952644313,2683475,2,2,b
1581952644413,2681055,2,2,b
1581952644513,2678711,2,2,b
1581952644613,2676459,2,2,b
1581952644713,2674200,2,2,b
1581952644813,2672687,2,2,b
1581952644913,2670949,2,2,b
1581952645014,2669752,2,2,b
1581952645114,2669268,2,2,b
1581952645214,2668479,2,2,b
1581952645314,2668475,2,2,b
1581952645414,2669041,2,2,b
1581952645514,2669489,2,2,b
1581952645614,2670037,2,2,b
1581952645714,2670929,2,2,b
1581952645814,2673402,2,2,b
1581952645914,2675278,2,2,b
1581952646014,2674432,2,2,b
1581952646114,2671573,2,2,b
1581952646214,2666282,2,2,b
1581952646314,2658047,2,2,b
1581952646414,2656364,2,2,b
1581952646515,2659171,2,2,b
1581952646615,2663340,2,2,b
1581952646715,2667419,2,2,b
1581952646814,2672222,2,2,b
1581952646915,2672554,2,2,b
1581952647015,2673713,0,2,0
1581952647116,2676053,0,2,0
1581952647215,2676573,0,2,0
1581952647315,2678398,0,2,0
1581952647415,2679670,0,2,0
1581952647515,2679773,0,2,0
1581952647615,2683408,0,2,0
1581952647715,2687297,0,2,0
1581952647815,2691669,0,2,0
1581952647916,2695408,0,2,0
1581952648016,2699392,0,2,0
1581952648116,2701471,0,2,0
1581952648215,2703701,0,2,0
1581952648316,2705922,0,2,0
1581952648416,2708928,0,2,0
1581952648518,2712391,0,2,0
1581952648616,2713869,0,2,0
1581952648716,2713389,0,2,0
1581952648816,2712664,0,2,0
1581952648916,2712381,0,2,0
1581952649018,2711714,0,2,0
1581952649116,2710818,0,2,0
1581952649216,2709211,0,2,0
1581952649317,2709490,0,2,0
1581952649417,2709542,0,2,0
1581952649517,2707846,0,2,0
1581952649617,2705671,0,2,0
1581952649717,2705020,0,2,0
1581952649817,2705096,0,2,0
1581952649917,2705393,0,2,0
1581952650017,2706444,0,2,0
1581952650117,2708103,0,2,0
1581952650219,2709188,0,2,0
1581952650317,2710273,0,2,0
1581952650417,2711134,0,2,0
1581952650519,2712257,0,2,0
1581952650617,2712793,0,2,0
1581952650717,2712566,0,2,0
1581952650818,2714482,0,2,0
1581952650918,2717028,0,2,0
1581952651019,2718627,0,2,0
1581952651118,2720062,0,2,0
1581952651218,2720825,0,2,0
1581952651318,2721310,0,2,0
1581952651418,2721260,0,2,0
1581952651518,2722008,0,2,0
1581952651618,2724413,0,2,0
1581952651718,2725450,0,2,0
1581952651818,2724998,0,2,0
1581952651918,2724188,0,2,0
1581952652018,2723334,0,2,0
1581952652118,2724227,0,2,0
1581952652218,2725084,0,2,0
1581952652318,2725716,0,2,0
1581952652418,2726706,0,2,0
1581952652519,2726740,0,2,0
1581952652619,2725953,0,2,0
1581952652719,2724656,0,2,0
1581952652819,2723555,0,2,0
1581952652919,2722692,0,2,0
1581952653019,2721964,0,2,0
1581952653119,2722034,0,2,0
1581952653219,2721534,0,2,0
1581952653319,2721932,0,2,0
1581952653419,2721332,0,2,0
1581952653519,2719449,0,2,0
1581952653619,2719220,0,2,0
1581952653719,2718527,0,2,0
1581952653819,2718001,0,2,0
1581952653919,2717827,0,2,0
1581952654020,2717785,0,2,0
1581952654120,2718060,0,2,0
1581952654219,2718465,0,2,0
1581952654320,2717545,0,2,0
1581952654420,2716436,0,2,0
1581952654520,2715793,0,2,0
1581952654620,2715168,0,2,0
1581952654720,2715331,0,2,0
1581952654820,2715305,0,2,0
1581952654920,2715925,0,2,0
1581952655020,2716627,0,2,0
1581952655120,2716907,0,2,0
1581952655220,2716116,0,2,0
1581952655320,2715025,0,2,0
1581952655420,2714416,0,2,0
1581952655521,2714475,0,2,0
1581952655621,2714900,0,2,0
1581952655721,2715427,0,2,0
1581952655821,2716024,0,2,0
1581952655921,2717188,0,2,0
1581952656021,2717384,0,2,0
1581952656121,2717413,0,2,0
1581952656221,2717372,0,2,0
1581952656321,2717803,0,2,0
1581952656421,2718287,0,2,0
1581952656521,2719244,0,2,0
1581952656621,2720228,0,2,0
1581952656721,2721515,0,2,0
1581952656821,2721949,0,2,0
1581952656921,2721759,0,2,0
1581952657022,2721925,0,2,0
1581952657122,2722766,0,2,0
1581952657222,2724881,0,2,0
1581952657323,2724163,0,2,0
1581952657422,2724264,0,2,0
1581952657522,2725597,0,2,0
1581952657622,2725837,0,2,0
1581952657722,2727163,0,2,0
1581952657822,2727981,0,2,0
1581952657922,2727682,0,2,0
1581952658022,2726271,0,2,0
1581952658122,2727134,0,2,0
1581952658222,2727399,0,2,0
1581952658322,2726337,0,2,0
1581952658422,2726018,0,2,0
1581952658523,2726181,0,2,0
1581952658623,2726920,0,2,0
1581952658723,2727806,0,2,0
1581952658823,2727770,0,2,0
1581952658923,2727402,0,2,0
1581952659023,2726232,0,2,0
1581952659123,2725009,0,2,0
1581952659223,2724178,0,2,0
1581952659323,2723722,0,2,0
1581952659423,2723390,0,2,0
1581952659523,2724210,0,2,0
1581952659623,2726298,0,2,0
1581952659723,2727383,0,2,0
1581952659823,2727657,0,2,0
1581952659923,2728275,0,2,0
1581952660023,2728687,0,2,0
1581952660124,2729416,0,2,0
1581952660224,2730375,0,2,0
1581952660324,2731387,0,2,0
1581952660424,2732690,0,2,0
1581952660524,2733341,0,2,0
1581952660624,2733349,0,2,0
1581952660724,2732764,0,2,0
1581952660824,2733020,0,2,0
1581952660924,2733507,0,2,0
1581952661025,2734299,0,2,0
1581952661124,2734773,0,2,0
1581952661224,2734750,0,2,0
1581952661324,2734899,0,2,0
1581952661424,2735399,0,2,0
1581952661525,2735429,0,2,0
1581952661625,2735827,0,2,0
1581952661725,2736345,0,2,0
1581952661825,2736765,0,2,0
1581952661925,2736887,0,2,0
1581952662025,2737484,0,2,0
1581952662125,2736552,0,2,0
1581952662225,2735755,0,2,0
1581952662325,2735490,0,2,0
1581952662425,2735662,0,2,0
1581952662526,2736147,0,2,0
1581952662625,2736544,0,2,0
1581952662725,2737356,0,2,0
1581952662825,2737940,0,2,0
1581952662925,2737949,0,2,0
1581952663026,2737476,0,2,0
1581952663126,2737758,0,2,0
1581952663226,2738277,0,2,0
1581952663326,2739208,0,2,0
1581952663426,2740313,0,2,0
1581952663526,2741315,0,2,0
1581952663626,2741686,0,2,0
1581952663726,2741741,0,2,0
1581952663826,2741887,0,2,0
1581952663926,2742491,0,2,0
1581952664027,2742670,0,2,0
1581952664126,2743017,0,2,0
1581952664226,2744275,0,2,0
1581952664328,2745614,0,2,0
1581952664428,2745865,0,2,0
1581952664531,2746084,0,2,0
1581952664628,2746801,0,2,0
1581952664728,2746904,0,2,0
1581952664828,2746896,0,2,0
1581952664927,2747574,0,2,0
1581952665030,2748265,0,2,0
1581952665127,2748041,0,2,0
1581952665228,2748365,0,2,0
1581952665327,2748220,0,2,0
1581952665427,2748793,0,2,0
1581952665528,2749531,0,2,0
1581952665627,2750126,0,2,0
1581952665727,2751106,0,2,0
1581952665828,2751328,0,2,0
1581952665928,2751235,0,2,0
1581952666028,2751484,0,2,0
1581952666129,2752229,0,2,0
1581952666228,2752752,0,2,0
1581952666328,2753284,0,2,0
1581952666428,2754168,0,2,0
1581952666528,2754395,0,2,0
1581952666628,2753952,0,2,0
1581952666728,2753328,0,2,0
1581952666828,2753965,0,2,0
1581952666928,2753764,0,2,0
1581952667029,2753634,0,2,0
1581952667128,2753635,0,2,0
1581952667228,2753374,0,2,0
1581952667329,2753463,0,2,0
1581952667427,2753674,0,2,0
1581952667527,2753600,0,2,0
1581952667627,2753533,0,2,0
1581952667727,2753984,0,2,0
1581952667827,2754659,0,2,0
1581952667927,2754629,0,2,0
1581952668027,2753819,0,2,0
1581952668127,2753559,0,2,0
1581952668228,2753416,0,2,0
1581952668328,2753343,0,2,0
1581952668428,2753722,0,2,0
1581952668530,2753658,0,2,0
1581952668628,2754111,0,2,0
1581952668728,2753895,0,2,0
1581952668828,2752761,0,2,0
1581952668928,2752391,0,2,0
1581952669028,2752397,0,2,0
1581952669128,2752442,0,2,0
1581952669228,2752516,0,2,0
1581952669328,2753104,0,2,0
1581952669428,2753693,0,2,0
1581952669529,2752680,0,2,0
1581952669628,2752230,0,2,0
1581952669729,2751635,0,2,0
1581952669828,2751566,0,2,0
1581952669929,2751327,0,2,0
1581952670029,2751946,0,2,0
1581952670129,2751934,0,2,0
1581952670229,2751171,0,2,0
1581952670329,2749973,0,2,0
1581952670429,2748956,0,2,0
1581952670530,2748275,0,2,0
1581952670629,2747621,0,2,0
1581952670729,2747950,0,2,0
1581952670829,2747580,0,2,0
1581952670929,2746695,0,2,0
1581952671030,2745945,0,2,0
1581952671130,2744565,0,2,0
1581952671230,2743397,0,2,0
1581952671329,2742501,0,2,0
1581952671430,2742148,0,2,0
1581952671530,2741942,0,2,0
1581952671630,2741745,0,2,0
1581952671730,2740387,0,2,0
1581952671830,2739091,0,2,0
1581952671930,2738429,0,2,0
1581952672030,2737590,0,2,0
1581952672130,2737440,0,2,0
1581952672230,2737436,0,2,0
1581952672330,2737537,0,2,0
1581952672430,2737300,0,2,0
1581952672531,2736797,0,2,0
1581952672631,2736205,0,2,0
1581952672731,2735841,0,2,0
1581952672830,2735847,0,2,0
1581952672931,2736425,0,2,0
1581952673031,2736971,0,2,0
1581952673131,2736912,0,2,0
1581952673231,2736023,0,2,0
1581952673331,2735945,0,2,0
1581952673431,2735802,0,2,0
1581952673531,2735296,0,2,0
1581952673632,2735596,0,2,0
1581952673731,2735701,0,2,0
1581952673831,2735570,0,2,0
1581952673932,2734603,0,2,0
1581952674032,2733805,0,2,0
1581952674131,2733232,0,2,0
1581952674232,2732718,0,2,0
1581952674332,2732979,0,2,0
1581952674432,2733213,0,2,0
1581952674532,2733416,0,2,0
1581952674632,2732495,0,2,0
1581952674732,2732003,0,2,0
1581952674832,2731639,0,2,0
1581952674932,2731487,0,2,0
1581952675032,2731598,0,2,0
1581952675133,2732291,0,2,0
1581952675233,2732639,0,2,0
1581952675332,2733281,0,2,0
1581952675432,2732841,0,2,0
1581952675533,2732993,0,2,0
1581952675632,2732947,0,2,0
1581952675733,2733509,0,2,0
1581952675833,2734062,0,2,0
1581952675933,2735088,0,2,0
1581952676033,2735827,0,2,0
1581952676133,2736161,0,2,0
1581952676233,2736265,0,2,0
1581952676333,2735830,0,2,0
1581952676433,2735961,0,2,0
1581952676534,2736649,0,2,0
1581952676633,2737233,0,2,0
1581952676733,2737634,0,2,0
1581952676833,2738549,0,2,0
1581952676933,2738364,0,2,0
1581952677034,2738127,0,2,0
1581952677134,2738052,0,2,0
1581952677249,2737721,0,2,0
1581952677335,2736262,0,2,0
1581952677434,2733180,0,2,0
1581952677534,2735146,0,2,0
1581952677634,2739292,0,2,0
1581952677734,2741643,0,2,0
1581952677834,2742733,0,2,0
1581952677934,2744097,0,2,0
1581952678034,2744930,0,2,0
1581952678134,2745808,0,2,0
1581952678234,2745580,0,2,0
1581952678334,2746520,0,2,0
1581952678434,2747650,0,2,0
1581952678535,2747858,0,2,0
1581952678635,2748965,0,2,0
1581952678735,2750156,0,2,0
1581952678834,2750956,0,2,0
1581952678935,2752681,0,2,0
1581952679035,2753659,0,2,0
1581952679135,2755237,0,2,0
1581952679235,2755457,0,2,0
1581952679335,2755269,0,2,0
1581952679435,2755444,0,2,0
1581952679535,2755582,0,2,0
1581952679635,2755329,0,2,0
1581952679735,2756240,0,2,0
1581952679835,2757259,0,2,0
1581952679935,2757862,0,2,0
1581952680035,2757440,0,2,0
1581952680135,2757264,0,2,0
1581952680239,2757242,0,2,0
1581952680336,2758003,0,2,0
1581952680436,2758841,0,2,0
1581952680537,2758782,0,2,0
1581952680636,2758661,0,2,0
1581952680736,2758554,0,2,0
1581952680836,2758442,0,2,0
1581952680936,2758364,0,2,0
1581952681037,2758288,0,2,0
1581952681137,2758528,0,2,0
1581952681236,2758735,0,2,0
1581952681336,2758519,0,2,0
1581952681437,2758202,0,2,0
1581952681537,2757710,0,2,0
1581952681637,2757394,0,2,0
1581952681737,2757850,0,2,0
1581952681837,2758783,0,2,0
1581952681937,2759087,0,2,0
1581952682037,2759790,0,2,0
1581952682137,2759646,0,2,0
1581952682237,2759486,0,2,0
1581952682337,2759567,0,2,0
1581952682437,2760184,0,2,0
1581952682541,2759939,0,2,0
1581952682638,2759980,0,2,0
1581952682738,2760515,0,2,0
1581952682837,2760014,0,2,0
1581952682938,2759712,0,2,0
1581952683039,2759055,0,2,0
1581952683138,2758905,0,2,0
1581952683238,2758694,0,2,0
1581952683338,2758321,0,2,0
1581952683438,2758357,0,2,0
1581952683538,2758747,0,2,0
1581952683638,2758397,0,2,0
1581952683738,2757279,0,2,0
1581952683838,2756105,0,2,0
1581952683938,2755452,0,2,0
1581952684038,2754909,0,2,0
1581952684138,2754596,0,2,0
1581952684238,2754508,0,2,0
1581952684338,2754627,0,2,0
1581952684438,2754022,0,2,0
1581952684539,2752705,0,2,0
1581952684639,2751798,0,2,0
1581952684739,2751029,0,2,0
1581952684838,2749810,0,2,0
1581952684939,2749754,0,2,0
1581952685039,2749772,0,2,0
1581952685139,2749630,0,2,0
1581952685239,2749510,0,2,0
1581952685339,2748834,0,2,0
1581952685439,2747870,0,2,0
1581952685539,2747382,0,2,0
1581952685639,2747012,0,2,0
1581952685739,2746953,0,2,0
1581952685839,2746823,0,2,0
1581952685939,2746625,0,2,0
1581952686039,2745679,0,2,0
1581952686139,2744326,0,2,0
1581952686240,2743494,0,2,0
1581952686340,2742718,0,2,0
1581952686440,2742066,0,2,0
1581952686540,2741777,0,2,0
1581952686640,2741414,0,2,0
1581952686740,2739900,0,2,0
1581952686840,2738176,0,2,0
1581952686940,2737137,0,2,0
1581952687041,2735632,0,2,0
1581952687140,2734502,0,2,0
1581952687240,2733945,0,2,0
1581952687341,2733363,0,2,0
1581952687440,2732254,0,2,0
1581952687540,2730883,0,2,0
1581952687641,2729336,0,2,0
1581952687741,2728815,0,2,0
1581952687840,2728244,0,2,0
1581952687941,2728330,0,2,0
1581952688041,2728400,0,2,0
1581952688141,2728270,0,2,0
1581952688241,2726753,0,2,0
1581952688341,2725947,0,2,0
1581952688441,2725371,0,2,0
1581952688541,2725298,0,2,0
1581952688642,2725369,0,2,0
1581952688741,2726038,0,2,0
1581952688841,2725779,0,2,0
1581952688942,2724027,0,2,0
1581952689042,2722582,0,2,0
1581952689142,2721594,0,2,0
1581952689242,2720685,0,2,0
1581952689342,2720428,0,2,0
1581952689442,2720994,0,2,0
1581952689542,2721199,0,2,0
1581952689642,2720671,0,2,0
1581952689742,2719235,0,2,0
1581952689842,2718330,0,2,0
1581952689942,2717766,0,2,0
1581952690042,2717838,0,2,0
1581952690142,2717717,0,2,0
1581952690242,2718723,0,2,0
1581952690342,2717808,0,2,0
1581952690442,2718693,0,2,0
1581952690543,2720931,0,2,0
1581952690642,2720926,0,2,0
1581952690743,2721194,0,2,0
1581952690843,2722381,0,2,0
1581952690943,2720684,0,2,0
1581952691043,2714127,0,2,0
1581952691143,2713730,0,2,0
1581952691243,2716730,0,2,0
1581952691343,2716957,0,2,0
1581952691443,2715133,0,2,0
1581952691543,2712666,0,2,0
1581952691643,2714664,0,2,0
1581952691743,2716951,0,2,0
1581952691843,2717610,0,2,0
1581952691943,2718096,0,2,0
1581952692043,2718050,0,2,0
1581952692143,2716284,0,2,0
1581952692244,2715513,0,2,0
1581952692344,2715223,0,2,0
1581952692445,2715108,0,2,0
1581952692545,2715553,0,2,0
1581952692645,2715517,0,2,0
1581952692745,2715240,0,2,0
1581952692845,2714845,0,2,0
1581952692945,2713121,0,2,0
1581952693045,2712008,0,2,0
1581952693145,2710887,0,2,0
1581952693245,2709936,0,2,0
1581952693345,2709173,0,2,0
1581952693446,2708051,0,2,0
1581952693546,2706251,0,2,0
1581952693646,2703324,0,2,0
1581952693746,2695135,0,2,0
1581952693846,2686408,0,2,0
1581952693946,2685111,0,2,0
1581952694047,2686987,0,2,0
1581952694146,2688686,0,2,0
1581952694246,2688232,0,2,0
1581952694347,2688004,0,2,0
1581952694447,2687996,0,2,0
1581952694552,2687638,0,2,0
1581952694647,2687721,0,2,0
1581952694747,2686232,0,2,0
1581952694847,2687379,0,2,0
1581952694947,2687662,0,2,0
1581952695049,2687410,0,2,0
1581952695148,2687660,0,2,0
1581952695248,2688181,0,2,0
1581952695347,2688511,0,2,0
1581952695447,2689704,0,2,0
1581952695548,2691299,0,2,0
1581952695647,2694117,0,2,0
1581952695747,2694802,0,2,0
1581952695848,2694628,0,2,0
1581952695948,2695825,0,2,0
1581952696048,2696747,0,2,0
1581952696148,2697846,0,2,0
1581952696248,2699296,0,2,0
1581952696348,2702107,0,2,0
1581952696448,2699034,0,2,0
1581952696551,2694782,0,2,0
1581952696648,2693908,0,2,0
1581952696748,2688351,0,2,0
1581952696848,2687824,0,2,0
1581952696948,2684450,0,2,0
1581952697049,2676695,0,2,0
1581952697149,2673364,0,2,0
1581952697248,2672728,0,2,0
1581952697350,2674990,0,2,0
1581952697450,2678062,0,2,0
1581952697550,2679824,0,2,0
1581952697650,2682650,0,2,0
1581952697750,2681372,0,2,0
1581952697849,2682381,0,2,0
1581952697950,2682876,0,2,0
1581952698049,2681719,0,2,0
1581952698149,2680558,0,2,0
1581952698249,2679188,0,2,0
1581952698349,2676946,0,2,0
1581952698449,2673728,0,2,0
1581952698550,2671866,0,2,0
1581952698650,2671605,0,2,0
1581952698749,2673163,0,2,0
1581952698849,2674324,0,2,0
1581952698949,2675096,0,2,0
1581952699050,2674129,0,2,0
1581952699150,2670680,0,2,0
