timestamp,ppg,label,stage,hand
1582118074035,4533205,0,0,0
1582118074135,4533307,0,0,0
1582118074236,4533245,0,0,0
1582118074335,4533242,0,0,0
1582118074435,4533211,0,0,0
1582118074536,4533249,0,0,0
1582118074636,4533218,0,0,0
1582118074736,4533291,0,0,0
1582118074836,4533291,0,0,0
1582118074936,4533158,0,0,0
1582118075036,4533245,0,0,0
1582118075136,4533253,0,0,0
1582118075236,4533150,0,0,0
1582118075338,4533229,0,0,0
1582118075436,4533242,0,0,0
1582118075538,4533240,0,0,0
1582118075637,4533255,0,0,0
1582118075737,4533255,0,0,0
1582118075837,4528975,0,0,0
1582118075937,2619285,0,0,0
1582118076038,2414266,0,0,0
1582118076138,2383632,0,0,0
1582118076238,2379280,0,0,0
1582118076339,2525840,0,0,0
1582118076438,4526171,0,0,0
1582118076538,4526072,0,0,0
1582118076708,4522982,0,0,0
1582118076742,4507626,0,0,0
1582118076847,4480268,0,0,0
1582118076960,4489126,0,0,0
1582118077050,4504418,0,0,0
1582118077139,4516433,0,0,0
1582118077242,4523341,0,0,0
1582118077342,4521429,0,0,0
1582118077442,4466354,0,0,0
1582118077542,3148848,0,0,0
1582118077641,2523580,0,0,0
1582118077742,4529834,0,0,0
1582118077840,4532303,0,0,0
1582118077942,4533144,0,0,0
1582118078039,4533120,0,0,0
1582118078143,4529443,0,0,0
1582118078242,4528511,0,0,0
1582118078341,4532979,0,0,0
1582118078441,4531682,0,0,0
1582118078541,4529653,0,0,0
1582118078641,4532287,0,0,0
1582118078743,4532945,0,0,0
1582118078841,4532940,0,0,0
1582118078941,4533137,0,0,0
1582118079049,4533095,0,0,0
1582118079142,4533215,0,0,0
1582118079242,4533043,0,0,0
1582118079342,4532919,0,0,0
1582118079442,4533060,0,0,0
1582118079550,4533159,0,0,0
1582118079643,4533140,0,0,0
1582118079742,4533120,0,0,0
1582118079842,4533103,0,0,0
1582118079942,4533168,0,0,0
1582118080049,4533196,0,0,0
1582118080143,4533275,0,0,0
1582118080243,4533099,0,0,0
1582118080342,4533138,0,0,0
1582118080442,4533079,0,0,0
1582118080551,4533048,0,0,0
1582118080643,4533182,0,0,0
1582118080743,4533224,0,0,0
1582118080843,4533093,0,0,0
1582118080942,4533045,0,0,0
1582118081051,4532945,0,0,0
1582118081143,4532888,0,0,0
1582118081243,4533040,0,0,0
1582118081369,4532938,0,0,0
1582118081443,4532907,0,0,0
1582118081542,4532846,0,0,0
1582118081642,4245924,0,0,0
1582118081743,4200901,0,0,0
1582118081842,2330546,0,0,0
1582118081942,2025590,0,0,0
1582118082044,2047663,0,0,0
1582118082143,2562865,0,0,0
1582118082242,2557114,0,0,0
1582118082343,2880056,0,0,0
1582118082442,2935145,0,0,0
1582118082543,2940514,0,0,0
1582118082643,3120504,0,0,0
1582118082742,3132897,0,0,0
1582118082842,3265139,0,0,0
1582118082943,3292487,0,0,0
1582118083043,2778775,0,0,0
1582118083143,2915926,0,0,0
1582118083243,3179599,0,0,0
1582118083343,3168960,0,0,0
1582118083444,3059183,0,0,0
1582118083544,3244252,0,0,0
1582118083644,3058057,0,0,0
1582118083743,3164220,0,0,0
1582118083844,3190065,0,0,0
1582118083943,3197256,0,0,0
1582118084043,3220535,0,0,0
1582118084144,3215662,0,0,0
1582118084243,3233886,0,0,0
1582118084343,3254145,0,0,0
1582118084444,3223660,0,0,0
1582118084544,3166764,0,0,0
1582118084644,3179012,0,0,0
1582118084744,2784869,0,0,0
1582118084844,3026933,0,0,0
1582118084944,3085659,0,0,0
1582118085044,3094233,0,0,0
1582118085144,3092346,0,0,0
1582118085244,3092678,0,0,0
1582118085345,3102847,0,0,0
1582118085444,3071985,0,0,0
1582118085544,3048872,0,0,0
1582118085646,2992726,0,0,0
1582118085745,2991911,0,0,0
1582118085845,3005229,0,0,0
1582118085945,3053454,0,0,0
1582118086045,3040331,0,0,0
1582118086145,3037395,0,0,0
1582118086245,2993807,0,0,0
1582118086345,2943220,0,0,0
1582118086445,2940401,0,0,0
1582118086546,2947854,0,0,0
1582118086645,2922592,0,0,0
1582118086745,2918628,0,0,0
1582118086873,2895118,0,0,0
1582118086946,2953182,0,0,0
1582118087045,2999820,0,0,0
1582118087146,2989565,0,0,0
1582118087246,2998245,0,0,0
1582118087348,2948281,0,0,0
1582118087446,2918645,0,0,0
1582118087546,2927917,0,0,0
1582118087647,2925841,0,0,0
1582118087746,2912759,0,0,0
1582118087846,2834315,0,0,0
1582118087946,2836364,0,0,0
1582118088046,2835136,0,0,0
1582118088146,2838252,0,0,0
1582118088246,2797624,0,0,0
1582118088393,2890981,0,0,0
1582118088517,2802219,0,0,0
1582118088591,2722646,0,0,0
1582118088649,2785248,0,0,0
1582118088746,2968053,0,0,0
1582118088848,2960097,0,0,0
1582118088948,2927456,0,0,0
1582118089047,2910078,0,0,0
1582118089147,2893569,0,0,0
1582118089251,3266890,0,0,0
1582118089350,3227422,0,0,0
1582118089447,3181623,0,0,0
1582118089553,3000717,0,0,0
1582118089677,2908366,0,0,0
1582118089749,2987700,0,0,0
1582118089852,3044104,0,0,0
1582118089947,3089634,0,0,0
1582118090049,3106988,0,0,0
1582118090149,3185945,0,0,0
1582118090249,3144068,0,0,0
1582118090351,3149308,0,0,0
1582118090448,3150496,0,0,0
1582118090548,2975901,0,0,0
1582118090648,2910451,0,0,0
1582118090749,2996326,0,0,0
1582118090848,3060736,0,0,0
1582118090948,3299561,0,0,0
1582118091048,3245500,0,0,0
1582118091148,3112824,0,0,0
1582118091248,3163753,0,0,0
1582118091349,3291719,0,0,0
1582118091448,3160122,0,0,0
1582118091548,2927140,0,0,0
1582118091649,2938633,0,0,0
1582118091749,2948751,0,0,0
1582118091848,2957046,0,0,0
1582118091949,2959352,0,0,0
1582118092049,2954007,0,0,0
1582118092149,2952461,0,0,0
1582118092249,2954216,0,0,0
1582118092349,2957795,0,0,0
1582118092449,2961193,0,0,0
1582118092550,2998181,0,0,0
1582118092649,2980661,0,0,0
1582118092749,2955494,0,0,0
1582118092850,2958259,0,0,0
1582118092949,2964660,0,0,0
1582118093049,2995631,0,0,0
1582118093150,2959939,0,0,0
1582118093249,2966955,0,0,0
1582118093350,2968142,0,0,0
1582118093451,2966667,0,0,0
1582118093551,2976164,0,0,0
1582118093650,3264127,0,0,0
1582118093751,3342544,0,0,0
1582118093850,3110982,0,0,0
1582118093950,2955303,0,0,0
1582118094050,2960223,0,0,0
1582118094150,2963762,0,0,0
1582118094250,2964340,0,0,0
1582118094351,2966078,0,0,0
1582118094450,2968645,0,0,0
1582118094550,2973163,0,0,0
1582118094652,2978286,0,0,0
1582118094752,2981310,0,0,0
1582118094852,2982460,0,0,0
1582118094952,2985108,0,0,0
1582118095051,2984283,0,0,0
1582118095152,3006492,0,0,0
1582118095252,3047537,0,0,0
1582118095352,2982512,0,0,0
1582118095451,2974566,0,0,0
1582118095552,2977081,0,0,0
1582118095651,2978261,0,0,0
1582118095751,2976986,0,0,0
1582118095852,2979860,0,0,0
1582118095951,3070107,0,0,0
1582118096051,3242706,0,0,0
1582118096152,3231443,0,0,0
1582118096251,3318622,0,0,0
1582118096351,3265884,0,0,0
1582118096452,3276914,0,0,0
1582118096552,3292743,0,0,0
1582118096652,3135427,0,0,0
1582118096752,3306081,0,0,0
1582118096852,3209331,0,0,0
1582118096952,3035946,0,0,0
1582118097052,2931822,0,0,0
1582118097152,3011350,0,0,0
1582118097252,3169219,0,0,0
1582118097353,2992322,0,0,0
1582118097452,3015281,0,0,0
1582118097552,3024527,0,0,0
1582118097653,2943188,0,0,0
1582118097752,2886620,0,0,0
1582118097852,2855271,0,0,0
1582118098025,2849542,0,0,0
1582118098055,3127262,0,0,0
1582118098154,3195296,0,0,0
1582118098253,3220789,0,0,0
1582118098353,2844824,0,0,0
1582118098455,2733886,0,0,0
1582118098557,2734996,0,0,0
1582118098656,2734044,0,0,0
1582118098757,2780939,0,0,0
1582118098856,2947550,0,0,0
1582118098955,2915124,0,0,0
1582118099074,2874820,0,0,0
1582118099156,2777367,0,0,0
1582118099256,2745644,0,0,0
1582118099363,2745129,0,0,0
1582118099456,2987094,0,0,0
1582118099556,3290465,0,0,0
1582118099657,3323379,0,0,0
1582118099756,2887942,0,0,0
1582118099856,2761234,0,0,0
1582118099956,2746149,0,0,0
1582118100057,2778110,0,0,0
1582118100155,2777272,0,0,0
1582118100258,2754372,0,0,0
1582118100357,2773309,0,0,0
1582118100457,2784219,0,0,0
1582118100660,3231873,0,0,0
1582118100756,3272898,0,0,0
1582118100854,3280269,0,0,0
1582118100957,3290473,0,0,0
1582118101057,3183427,0,0,0
1582118101155,3283265,0,0,0
1582118101256,3176289,0,0,0
1582118101357,2989392,0,0,0
1582118101455,2773511,0,0,0
1582118101556,2846658,0,0,0
1582118101657,2869411,0,0,0
1582118101755,2943298,0,0,0
1582118101856,2966822,0,0,0
1582118101955,2938389,0,0,0
1582118102055,2906597,0,0,0
1582118102156,2896658,0,0,0
1582118102255,2930303,0,0,0
1582118102355,2935888,0,0,0
1582118102456,2928726,0,0,0
1582118102559,2910759,0,0,0
1582118102657,2903364,0,0,0
1582118102756,2917585,0,0,0
1582118102856,2901707,0,0,0
1582118102956,2878069,0,0,0
1582118103056,2847995,0,0,0
1582118103156,2870121,0,0,0
1582118103256,2849861,0,0,0
1582118103361,2869021,0,0,0
1582118103456,2863466,0,0,0
1582118103556,2886202,0,0,0
1582118103657,2883416,0,0,0
1582118103758,2874233,0,0,0
1582118103856,2868382,0,0,0
1582118103957,2888497,0,0,0
1582118104057,2926873,0,0,0
1582118104157,2982351,0,0,0
1582118104257,3194445,0,0,0
1582118104357,3233745,0,0,0
1582118104457,3235223,0,0,0
1582118104558,3237900,0,0,0
1582118104657,3239921,0,0,0
1582118104757,3119346,0,0,0
1582118104857,2729287,0,0,0
1582118104957,2741421,0,0,0
1582118105057,2818012,0,0,0
1582118105158,2952060,0,0,0
1582118105257,3138504,0,0,0
1582118105357,3216306,0,0,0
1582118105458,3180668,0,0,0
1582118105558,3158570,0,0,0
1582118105658,3186781,0,0,0
1582118105759,2902658,0,0,0
1582118105858,2915541,0,0,0
1582118105958,3203025,0,0,0
1582118106058,3073379,0,0,0
1582118106158,3032025,0,0,0
1582118106258,3010971,0,0,0
1582118106359,2862437,0,0,0
1582118106458,3113335,0,0,0
1582118106558,3226150,0,0,0
1582118106660,3187157,0,0,0
1582118106758,3173666,0,0,0
1582118106858,3124528,0,0,0
1582118106959,3169278,0,0,0
1582118107075,3160395,0,0,0
1582118107159,3206352,0,0,0
1582118107259,3082447,0,0,0
1582118107359,3057582,0,0,0
1582118107459,3005547,0,0,0
1582118107560,2933777,0,0,0
1582118107659,2946425,0,0,0
1582118107759,2956662,0,0,0
1582118107859,2989945,0,0,0
1582118107959,3035430,0,0,0
1582118108059,2982103,0,0,0
1582118108160,3048206,0,0,0
1582118108259,3117007,0,0,0
1582118108359,3033697,0,0,0
1582118108460,3010834,0,0,0
1582118108560,3016844,0,0,0
1582118108660,3101854,0,0,0
1582118108761,3269973,0,0,0
1582118108860,3214796,0,0,0
1582118108960,3003107,0,0,0
1582118109060,3085424,0,0,0
1582118109160,3004378,0,0,0
1582118109260,3048208,0,0,0
1582118109362,3016420,0,0,0
1582118109460,2927108,0,0,0
1582118109561,2849921,0,0,0
1582118109661,2828778,0,0,0
1582118109761,2821590,0,0,0
1582118109860,2812323,0,0,0
1582118109961,2818183,0,0,0
1582118110060,2822096,0,0,0
1582118110160,2835281,0,0,0
1582118110261,2838686,0,0,0
1582118110361,2823732,0,0,0
1582118110461,2802103,0,0,0
1582118110561,2799159,0,0,0
1582118110661,2797809,0,0,0
1582118110761,2801441,0,0,0
1582118110862,2797113,0,0,0
1582118110961,2792593,0,0,0
1582118111061,3041529,0,0,0
1582118111162,3259360,0,0,0
1582118111261,3090737,0,0,0
1582118111362,2972146,0,0,0
1582118111462,2962018,0,0,0
1582118111562,3068570,0,0,0
1582118111662,3252624,0,0,0
1582118111762,3129109,0,0,0
1582118111862,3236196,0,0,0
1582118111962,3205110,0,0,0
1582118112062,3140235,0,0,0
1582118112162,3186965,0,0,0
1582118112262,3231896,0,0,0
1582118112363,3033178,0,0,0
1582118112462,3221868,0,0,0
1582118112562,3219914,0,0,0
1582118112663,3204368,0,0,0
1582118112762,3203188,0,0,0
1582118112862,3154193,0,0,0
1582118112963,2940758,0,0,0
1582118113063,2647521,0,0,0
1582118113163,2694243,0,0,0
1582118113263,2656940,0,0,0
1582118113363,2817007,0,0,0
1582118113463,2932196,0,0,0
1582118113564,2820794,0,0,0
1582118113663,2654948,0,0,0
1582118113763,2455136,0,0,0
1582118113864,2540018,0,0,0
1582118113965,2736605,0,0,0
1582118114063,3077584,0,0,0
1582118114164,3180324,0,0,0
1582118114263,3043017,0,0,0
1582118114363,2508360,0,0,0
1582118114464,2445875,0,0,0
1582118114564,2389113,0,0,0
1582118114664,2417815,0,0,0
1582118114764,2676587,0,0,0
1582118114864,3077753,0,0,0
1582118114964,3129635,0,0,0
1582118115064,3131403,0,0,0
1582118115164,2896789,0,0,0
1582118115264,2614213,0,0,0
1582118115365,2597802,0,0,0
1582118115464,2700455,0,0,0
1582118115565,2886472,0,0,0
1582118115666,3144073,0,0,0
1582118115765,3122549,0,0,0
1582118115865,3071270,0,0,0
1582118115967,3195918,0,0,0
1582118116065,3198547,0,0,0
1582118116164,3198043,0,0,0
1582118116265,3159517,0,0,0
1582118116365,3030713,0,0,0
1582118116465,3124624,0,0,0
1582118116566,3180924,0,0,0
1582118116665,3103097,0,0,0
1582118116765,3075266,0,0,0
1582118116866,2993029,0,0,0
1582118116965,2854643,0,0,0
1582118117065,2797589,0,0,0
1582118117166,2781257,0,0,0
1582118117265,2771827,0,0,0
1582118117368,2762707,0,0,0
1582118117466,2743469,0,0,0
1582118117566,2693373,0,0,0
1582118117667,2714382,0,0,0
1582118117766,2719590,0,0,0
1582118117866,2653598,0,0,0
1582118117966,2606740,0,0,0
1582118118066,2702781,0,0,0
1582118118168,3183435,0,0,0
1582118118267,3219488,0,0,0
1582118118367,3190640,0,0,0
1582118118466,3244260,0,0,0
1582118118566,3184494,0,0,0
1582118118667,3000338,0,0,0
1582118118766,3123474,0,0,0
1582118118866,3010260,0,0,0
1582118118967,3001873,0,0,0
1582118119067,3033957,0,0,0
1582118119167,3025436,0,0,0
1582118119267,3003295,0,0,0
1582118119369,3046339,0,0,0
1582118119467,3080399,0,0,0
1582118119567,2876709,0,0,0
1582118119667,2865291,0,0,0
1582118119767,2920030,0,0,0
1582118119872,2957487,0,0,0
1582118119968,3036101,0,0,0
1582118120067,3140181,0,0,0
1582118120168,3192594,0,0,0
1582118120268,3006878,0,0,0
1582118120368,2950864,0,0,0
1582118120468,3013127,0,0,0
1582118120568,3179525,0,0,0
1582118120668,3123126,0,0,0
1582118120772,3204857,0,0,0
1582118120915,3031677,0,0,0
1582118120981,2874443,0,0,0
1582118121070,2793961,0,0,0
1582118121170,3278916,0,0,0
1582118121268,3364002,0,0,0
1582118121370,3218934,0,0,0
1582118121471,2811977,0,0,0
1582118121571,2858855,0,0,0
1582118121671,3026822,0,0,0
1582118121769,2953566,0,0,0
1582118121869,3002337,0,0,0
1582118121971,2901591,0,0,0
1582118122069,2849442,0,0,0
1582118122171,3129027,0,0,0
1582118122272,2869038,0,0,0
1582118122369,2851808,0,0,0
1582118122470,2839323,0,0,0
1582118122570,2848598,0,0,0
1582118122669,2841363,0,0,0
1582118122770,2851574,0,0,0
1582118122871,2854218,0,0,0
1582118122969,2855123,0,0,0
1582118123071,2856148,0,0,0
1582118123171,2851104,0,0,0
1582118123270,2847418,0,0,0
1582118123370,2848327,0,0,0
1582118123471,2841210,0,0,0
1582118123570,2838561,0,0,0
1582118123670,2838144,0,0,0
1582118123771,2840010,0,0,0
1582118123870,2844702,0,0,0
1582118123970,2846624,0,0,0
1582118124072,2847513,0,0,0
1582118124170,2847181,0,0,0
1582118124271,2835318,0,0,0
1582118124371,2837592,0,0,0
1582118124471,2830065,0,0,0
1582118124609,2828541,0,0,0
1582118124672,2824050,0,0,0
1582118124772,2820059,0,0,0
1582118124872,2820140,0,0,0
1582118124972,2814288,0,0,0
1582118125074,2914537,0,0,0
1582118125174,3070126,0,0,0
1582118125273,2940113,0,0,0
1582118125372,2772737,0,0,0
1582118125472,2750301,0,0,0
1582118125572,2742806,0,0,0
1582118125672,2737249,0,0,0
1582118125772,2730580,0,0,0
1582118125872,2724283,0,0,0
1582118125971,2718329,0,0,0
1582118126071,2707501,0,0,0
1582118126172,2695780,0,0,0
1582118126271,2691259,0,0,0
1582118126371,2686876,0,0,0
1582118126472,2677204,0,0,0
1582118126572,2672974,0,0,0
1582118126672,2669496,0,0,0
1582118126772,2665901,0,0,0
1582118126872,2662406,0,0,0
1582118126972,2662371,0,0,0
1582118127072,2658151,0,0,0
1582118127172,2657428,0,0,0
1582118127272,2654100,0,0,0
1582118127373,2651619,0,0,0
1582118127472,2664189,0,0,0
1582118127572,2675987,0,0,0
1582118127673,2752113,0,0,0
1582118127773,2774035,0,0,0
1582118127872,3029798,0,0,0
1582118127973,3205573,0,0,0
1582118128073,3116136,0,0,0
1582118128172,2707181,0,0,0
1582118128273,2693272,0,0,0
1582118128373,2688837,0,0,0
1582118128473,2697694,0,0,0
1582118128573,2696745,0,0,0
1582118128673,2697224,0,0,0
1582118128773,2696562,0,0,0
1582118128874,2691664,0,0,0
1582118128973,2692298,0,0,0
1582118129073,2693599,0,0,0
1582118129173,2695674,0,0,0
1582118129273,2703237,0,0,0
1582118129374,2707586,0,0,0
1582118129474,2710223,0,0,0
1582118129574,2713010,0,0,0
1582118129674,2714301,0,0,0
1582118129775,2719432,0,0,0
1582118129874,2721390,0,0,0
1582118129974,2726621,0,0,0
1582118130074,2952048,0,0,0
1582118130174,3229401,0,0,0
1582118130274,3283142,0,0,0
1582118130375,3209993,0,0,0
1582118130474,2711340,0,0,0
1582118130575,2695232,0,0,0
1582118130675,2692335,0,0,0
1582118130775,3128129,0,0,0
1582118130874,3028163,0,0,0
1582118130975,2688023,0,0,0
1582118131075,2669839,0,0,0
1582118131175,2663701,0,0,0
1582118131506,2655255,0,0,0
1582118131513,2653776,0,0,0
1582118131583,2658076,0,0,0
1582118131730,2664806,0,0,0
1582118131777,2669382,0,0,0
1582118131876,2672185,0,0,0
1582118131976,2672095,0,0,0
1582118132076,2670528,0,0,0
1582118132177,2670454,0,0,0
1582118132277,2671380,0,0,0
1582118132377,2671505,0,0,0
1582118132477,2672401,0,0,0
1582118132577,2675409,0,0,0
1582118132676,2680161,0,0,0
1582118132778,2681410,0,0,0
1582118132877,2680108,0,0,0
1582118132977,2682130,0,0,0
1582118133081,2683679,0,0,0
1582118133177,2723404,0,0,0
1582118133277,2725691,0,0,0
1582118133377,2739462,0,0,0
1582118133477,2838721,0,0,0
1582118133577,2716740,0,0,0
1582118133678,2701530,0,0,0
1582118133777,2690552,0,0,0
1582118133878,2693722,0,0,0
1582118133978,2692647,0,0,0
1582118134080,2694914,0,0,0
1582118134178,2699121,0,0,0
1582118134278,3097036,0,0,0
1582118134378,3313718,0,0,0
1582118134477,3183859,0,0,0
1582118134680,2729840,0,0,0
1582118134779,3074349,0,0,0
1582118134878,3234702,0,0,0
1582118134980,3078217,0,0,0
1582118135080,2896029,0,0,0
1582118135178,2861550,0,0,0
1582118135278,2827644,0,0,0
1582118135378,2780871,0,0,0
1582118135478,2769402,0,0,0
1582118135578,2716123,0,0,0
1582118135678,2711732,0,0,0
1582118135779,2701411,0,0,0
1582118135878,2693261,0,0,0
1582118135979,3134077,0,0,0
1582118136078,2978588,0,0,0
1582118136178,2872740,0,0,0
1582118136293,2843778,0,0,0
1582118136379,2805818,0,0,0
1582118136478,2849374,0,0,0
1582118136579,2925375,0,0,0
1582118136679,2980559,0,0,0
1582118136778,3013412,0,0,0
1582118136878,3037250,0,0,0
1582118136979,3062624,0,0,0
1582118137079,3169617,0,0,0
1582118137179,3244842,0,0,0
1582118137279,3244884,0,0,0
1582118137379,3245041,0,0,0
1582118137479,3249336,0,0,0
1582118137580,3250877,0,0,0
1582118137679,3199505,0,0,0
1582118137779,3206305,0,0,0
1582118137879,3121209,0,0,0
1582118137979,3032165,0,0,0
1582118138079,3149389,0,0,0
1582118138180,3119608,0,0,0
1582118138279,2740814,0,0,0
1582118138379,2687021,0,0,0
1582118138480,2660959,0,0,0
1582118138580,2646495,0,0,0
1582118138680,2646391,0,0,0
1582118138780,2648497,0,0,0
1582118138880,2651027,0,0,0
1582118138980,2651792,0,0,0
1582118139080,2650950,0,0,0
1582118139180,2639450,0,0,0
1582118139280,2642471,0,0,0
1582118139381,2646581,0,0,0
1582118139480,2647534,0,0,0
1582118139580,2627812,0,0,0
1582118139681,2625521,0,0,0
1582118139787,2631598,0,0,0
1582118139911,2635745,0,0,0
1582118139912,2635745,0,0,0
1582118140071,2629671,0,0,0
1582118140085,2628466,0,0,0
1582118140185,2615713,0,0,0
1582118140285,2622019,0,0,0
1582118140383,2934462,0,0,0
1582118140485,3018591,0,0,0
1582118140584,2825248,0,0,0
1582118140685,2751743,0,0,0
1582118140785,2750495,0,0,0
1582118140887,2761168,0,0,0
1582118140984,2761990,0,0,0
1582118141083,2769479,0,0,0
1582118141185,2768787,0,0,0
1582118141286,2767284,0,0,0
1582118141390,2764448,0,0,0
1582118141484,2766404,0,0,0
1582118141583,2770258,0,0,0
1582118141684,2769195,0,0,0
1582118141784,2775489,0,0,0
1582118141893,2774827,0,0,0
1582118141983,2774574,0,0,0
1582118142091,2767473,0,0,0
1582118142185,2785284,0,0,0
1582118142284,2785709,0,0,0
1582118142384,2791534,0,0,0
1582118142484,2796800,0,0,0
1582118142584,2816274,0,0,0
1582118142685,2778924,0,0,0
1582118142784,2753126,0,0,0
1582118142884,2757766,0,0,0
1582118142984,2752290,0,0,0
1582118143087,2757349,0,0,0
1582118143185,2757886,0,0,0
1582118143285,2763495,0,0,0
1582118143385,2765665,0,0,0
1582118143485,2774358,0,0,0
1582118143585,2776570,0,0,0
1582118143686,2780026,0,0,0
1582118143785,2787121,0,0,0
1582118143886,2788141,0,0,0
1582118143985,2789170,0,0,0
1582118144086,2792607,0,0,0
1582118144187,2796057,0,0,0
1582118144286,2804631,0,0,0
1582118144386,2818474,0,0,0
1582118144486,2830430,0,0,0
1582118144605,2835151,0,0,0
1582118144707,2835659,0,0,0
1582118144787,2836442,0,0,0
1582118144885,2838043,0,0,0
1582118144986,2838333,0,0,0
1582118145086,2841101,0,0,0
1582118145186,2805818,0,0,0
1582118145285,2610717,0,0,0
1582118145385,2585605,0,0,0
1582118145484,2966349,0,0,0
1582118145585,3205412,0,0,0
1582118145737,2885334,0,0,0
1582118145943,2646024,0,0,0
1582118146002,3313512,0,0,0
1582118146105,3232702,0,0,0
1582118146184,2839895,0,0,0
1582118146285,2782458,0,0,0
1582118146385,3063029,0,0,0
1582118146491,3052926,0,0,0
1582118146597,2784998,0,0,0
1582118146685,2799431,0,0,0
1582118146789,2889849,0,0,0
1582118146945,2857568,0,0,0
1582118147043,2933232,0,0,0
1582118147106,2993069,0,0,0
1582118147191,3029066,0,0,0
1582118147286,2828384,0,0,0
1582118147392,2689939,0,0,0
1582118147485,2727325,0,0,0
1582118147588,2747507,0,0,0
1582118147723,2743513,0,0,0
1582118147785,2745999,0,0,0
1582118147885,2834662,0,0,0
1582118147985,3182858,0,0,0
1582118148085,3133822,0,1,0
1582118148186,3151835,0,1,0
1582118148287,3168670,0,1,0
1582118148388,3188260,0,1,0
1582118148487,3220653,0,1,0
1582118148586,3225619,0,1,0
1582118148687,3228360,0,1,0
1582118148787,3231027,0,1,0
1582118148888,3231524,0,1,0
1582118148987,3244489,0,1,0
1582118149090,3248820,0,1,0
1582118149187,3248991,0,1,0
1582118149288,3247717,0,1,0
1582118149390,3245808,0,1,0
1582118149487,3241683,0,1,0
1582118149588,3243055,0,1,0
1582118149688,3238374,0,1,0
1582118149787,3231378,0,1,0
1582118149888,3230606,0,1,0
1582118149987,3230568,0,1,0
1582118150088,3220510,0,1,0
1582118150188,3214178,0,1,0
1582118150288,3203393,0,1,0
1582118150388,3191415,0,1,0
1582118150488,3185630,0,1,0
1582118150588,3174918,0,1,0
1582118150688,3165429,0,1,0
1582118150789,3163112,0,1,0
1582118150888,3135042,0,1,0
1582118150988,2874360,0,1,0
1582118151090,2778159,0,1,0
1582118151188,2679157,0,1,0
1582118151288,2675460,0,1,0
1582118151389,2677776,0,1,0
1582118151488,2698154,0,1,0
1582118151589,2681043,0,1,0
1582118151690,2681133,0,1,0
1582118151789,2682264,0,1,0
1582118151888,2683365,0,1,0
1582118151989,2683708,0,1,0
1582118152089,2683869,0,1,0
1582118152189,2683719,0,1,0
1582118152289,2683786,0,1,0
1582118152391,2683303,0,1,0
1582118152489,2682923,0,1,0
1582118152590,2682680,0,1,0
1582118152689,2682493,0,1,0
1582118152790,2682426,0,1,0
1582118152890,2682332,0,1,0
1582118152990,2682458,0,1,0
1582118153089,2682105,0,1,0
1582118153190,2681305,0,1,0
1582118153290,2680693,0,1,0
1582118153390,2680265,0,1,0
1582118153490,2679885,0,1,0
1582118153590,2679630,0,1,0
1582118153690,2679169,0,1,0
1582118153791,2678833,0,1,0
1582118153890,2678102,0,1,0
1582118153990,2677342,0,1,0
1582118154090,2676694,0,1,0
1582118154191,2676095,0,1,0
1582118154290,2675485,0,1,0
1582118154391,2674914,0,1,0
1582118154491,2674744,0,1,0
1582118154591,2674138,0,1,0
1582118154692,2673172,0,1,0
1582118154791,2672204,0,1,0
1582118154891,2671512,0,1,0
1582118154991,2670900,0,1,0
1582118155091,2670460,0,1,0
1582118155192,2670193,0,1,0
1582118155291,2669694,0,1,0
1582118155391,2668852,0,1,0
1582118155492,2667547,0,1,0
1582118155594,2666098,0,1,0
1582118155693,2665089,0,1,0
1582118155794,2664566,0,1,0
1582118155893,2664370,0,1,0
1582118155992,2664141,0,1,0
1582118156092,2664427,0,1,0
1582118156193,2665512,0,1,0
1582118156348,2665968,0,1,0
1582118156392,2666368,0,1,0
1582118156494,2665963,0,1,0
1582118156593,2665584,0,1,0
1582118156693,2665339,0,1,0
1582118156794,2665101,0,1,0
1582118156893,2664696,0,1,0
1582118156994,2664099,0,1,0
1582118157094,2663966,0,1,0
1582118157194,2663980,0,1,0
1582118157294,2663935,0,1,0
1582118157394,2664194,0,1,0
1582118157492,2664351,0,1,0
1582118157593,2664327,0,1,0
1582118157693,2664330,0,1,0
1582118157793,2664282,0,1,0
1582118157892,2664279,0,1,0
1582118157993,2664673,0,1,0
1582118158092,2664907,0,1,0
1582118158193,2665047,0,1,0
1582118158293,2665310,0,1,0
1582118158393,2665192,0,1,0
1582118158493,2664652,0,1,0
1582118158594,2664424,0,1,0
1582118158693,2664293,0,1,0
1582118158793,2664650,0,1,0
1582118158893,2664923,0,1,0
1582118158993,2665093,0,1,0
1582118159093,2664967,0,1,0
1582118159194,2664582,0,1,0
1582118159293,2663890,0,1,0
1582118159394,2663521,0,1,0
1582118159494,2663242,0,1,0
1582118159594,2663043,0,1,0
1582118159694,2662916,0,1,0
1582118159795,2662774,0,1,0
1582118159894,2662331,0,1,0
1582118159994,2661798,0,1,0
1582118160094,2661185,0,1,0
1582118160194,2660594,0,1,0
1582118160294,2660007,0,1,0
1582118160395,2659638,0,1,0
1582118160494,2658996,0,1,0
1582118160595,2658876,0,1,0
1582118160694,2658409,0,1,0
1582118160797,2657672,0,1,0
1582118160894,2656904,0,1,0
1582118160995,2656503,0,1,0
1582118161095,2655839,0,1,0
1582118161195,2655401,0,1,0
1582118161295,2654883,0,1,0
1582118161397,2655001,0,1,0
1582118161494,2655123,0,1,0
1582118161596,2655230,0,1,0
1582118161695,2655393,0,1,0
1582118161795,2655488,0,1,0
1582118161895,2655595,0,1,0
1582118161996,2655655,0,1,0
1582118162095,2655589,0,1,0
1582118162197,2655814,0,1,0
1582118162295,2656130,0,1,0
1582118162396,2656053,0,1,0
1582118162496,2656009,0,1,0
1582118162596,2655785,0,1,0
1582118162696,2655952,0,1,0
1582118162798,2655988,0,1,0
1582118162896,2656247,0,1,0
1582118162996,2656761,0,1,0
1582118163096,2657147,0,1,0
1582118163196,2657346,0,1,0
1582118163296,2657148,0,1,0
1582118163397,2657109,0,1,0
1582118163496,2656816,0,1,0
1582118163597,2656523,0,1,0
1582118163698,2656321,0,1,0
1582118163797,2656189,0,1,0
1582118163896,2655942,0,1,0
1582118163997,2655718,0,1,0
1582118164096,2655004,0,1,0
1582118164197,2654425,0,1,0
1582118164297,2653857,0,1,0
1582118164397,2653421,0,1,0
1582118164497,2653146,0,1,0
1582118164598,2653230,0,1,0
1582118164697,2653258,0,1,0
1582118164797,2653157,0,1,0
1582118164897,2653371,0,1,0
1582118164998,2653462,0,1,0
1582118165104,2653456,0,1,0
1582118165198,2653403,0,1,0
1582118165297,2653695,0,1,0
1582118165398,2654236,0,1,0
1582118165498,2654704,0,1,0
1582118165598,2654983,0,1,0
1582118165698,2655369,0,1,0
1582118165799,2656086,0,1,0
1582118165898,2656635,0,1,0
1582118165998,2657183,0,1,0
1582118166098,2658027,0,1,0
1582118166198,2658561,0,1,0
1582118166299,2659116,0,1,0
1582118166399,2659443,0,1,0
1582118166498,2659771,0,1,0
1582118166599,2660066,0,1,0
1582118166698,2660533,0,1,0
1582118166799,2661092,0,1,0
1582118166898,2661669,0,1,0
1582118166999,2661979,0,1,0
1582118167099,2661897,0,1,0
1582118167199,2661932,0,1,0
1582118167299,2661839,0,1,0
1582118167399,2661656,0,1,0
1582118167499,2661807,0,1,0
1582118167600,2661960,0,1,0
1582118167699,2662121,0,1,0
1582118167800,2661667,0,1,0
1582118167899,2661258,0,1,0
1582118168000,2660739,0,1,0
1582118168099,2660217,0,1,0
1582118168200,2659839,0,1,0
1582118168299,2659550,0,1,0
1582118168400,2659208,0,1,0
1582118168500,2658965,0,1,0
1582118168600,2658534,0,1,0
1582118168699,2657716,0,1,0
1582118168801,2657035,0,1,0
1582118168899,2656402,0,1,0
1582118169000,2655979,0,1,0
1582118169100,2655706,0,1,0
1582118169200,2655709,0,1,0
1582118169300,2655909,0,1,0
1582118169401,2656106,0,1,0
1582118169500,2656192,0,1,0
1582118169601,2656445,0,1,0
1582118169701,2656692,0,1,0
1582118169801,2657018,0,1,0
1582118169900,2657624,0,1,0
1582118170001,2658227,0,1,0
1582118170100,2658511,0,1,0
1582118170201,2658594,0,1,0
1582118170301,2658694,0,1,0
1582118170401,2659092,0,1,0
1582118170500,2659460,0,1,0
1582118170602,2659978,0,1,0
1582118170701,2660521,0,1,0
1582118170802,2661335,0,1,0
1582118170902,2661375,0,1,0
1582118171002,2661363,0,1,0
1582118171101,2661184,0,1,0
1582118171202,2661056,0,1,0
1582118171301,2660893,0,1,0
1582118171402,2660914,0,1,0
1582118171502,2660689,0,1,0
1582118171602,2660936,0,1,0
1582118171702,2660624,0,1,0
1582118171803,2659870,0,1,0
1582118171902,2659312,0,1,0
1582118172002,2658690,0,1,0
1582118172102,2658051,0,1,0
1582118172202,2657766,0,1,0
1582118172302,2657417,0,1,0
1582118172403,2657204,0,1,0
1582118172502,2656888,0,1,0
1582118172603,2656231,0,1,0
1582118172703,2655997,0,1,0
1582118172803,2655688,0,1,0
1582118172902,2655470,0,1,0
1582118173003,2655448,0,1,0
1582118173103,2655625,0,1,0
1582118173203,2655778,0,1,0
1582118173303,2656032,0,1,0
1582118173403,2655869,0,1,0
1582118173503,2655593,0,1,0
1582118173604,2655828,0,1,0
1582118173703,2656169,0,1,0
1582118173804,2656747,0,1,0
1582118173903,2657528,0,1,0
1582118174004,2658252,0,1,0
1582118174103,2658466,0,1,0
1582118174204,2658231,0,1,0
1582118174303,2658081,0,1,0
1582118174404,2657942,0,1,0
1582118174504,2658052,0,1,0
1582118174604,2658018,0,1,0
1582118174703,2657876,0,1,0
1582118174805,2658069,0,1,0
1582118174904,2657456,0,1,0
1582118175004,2656709,0,1,0
1582118175104,2656053,0,1,0
1582118175205,2655517,0,1,0
1582118175304,2655203,0,1,0
1582118175406,2654831,0,1,0
1582118175506,2654605,0,1,0
1582118175605,2654438,0,1,0
1582118175705,2653385,0,1,0
1582118175806,2651962,0,1,0
1582118175904,2651002,0,1,0
1582118176005,2650089,0,1,0
1582118176104,2649507,0,1,0
1582118176205,2649500,0,1,0
1582118176305,2649347,0,1,0
1582118176405,2649035,0,1,0
1582118176504,2648502,0,1,0
1582118176606,2648220,0,1,0
1582118176705,2648201,0,1,0
1582118176805,2648147,0,1,0
1582118176904,2648457,0,1,0
1582118177004,2648937,0,1,0
1582118177103,2649325,0,1,0
1582118177205,2649143,0,1,0
1582118177304,2648572,0,1,0
1582118177404,2648247,0,1,0
1582118177504,2648146,0,1,0
1582118177605,2648030,0,1,0
1582118177704,2648282,0,1,0
1582118177805,2648620,0,1,0
1582118177904,2648799,0,1,0
1582118178005,2648438,0,1,0
1582118178105,2647625,0,1,0
1582118178205,2647003,0,1,0
1582118178304,2646569,0,1,0
1582118178406,2646431,0,1,0
1582118178505,2646334,0,1,0
1582118178605,2646544,0,1,0
1582118178705,2646616,0,1,0
1582118178805,2645740,0,1,0
1582118178905,2644794,0,1,0
1582118179006,2644182,0,1,0
1582118179105,2643561,0,1,0
1582118179206,2643495,0,1,0
1582118179306,2643230,0,1,0
1582118179409,2643390,0,1,0
1582118179506,2643281,0,1,0
1582118179607,2642571,0,1,0
1582118179707,2641958,0,1,0
1582118179806,2641726,0,1,0
1582118179906,2641455,0,1,0
1582118180006,2641873,0,1,0
1582118180106,2642302,0,1,0
1582118180207,2642704,0,1,0
1582118180306,2643188,0,1,0
1582118180406,2642904,0,1,0
1582118180506,2643004,0,1,0
1582118180607,2643292,0,1,0
1582118180706,2643651,0,1,0
1582118180807,2644455,0,1,0
1582118180907,2645229,0,1,0
1582118181007,2646154,0,1,0
1582118181108,2646474,0,1,0
1582118181207,2646318,0,1,0
1582118181306,2646317,0,1,0
1582118181408,2646529,0,1,0
1582118181507,2646773,0,1,0
1582118181607,2647037,0,1,0
1582118181707,2647324,0,1,0
1582118181808,2647716,0,1,0
1582118181907,2647666,0,1,0
1582118182008,2647268,0,1,0
1582118182107,2647061,0,1,0
1582118182207,2647017,0,1,0
1582118182308,2646959,0,1,0
1582118182408,2646958,0,1,0
1582118182507,2647209,0,1,0
1582118182609,2647462,0,1,0
1582118182707,2647280,0,1,0
1582118182808,2646859,0,1,0
1582118182908,2646592,0,1,0
1582118183008,2646229,0,1,0
1582118183107,2646229,0,1,0
1582118183209,2646276,0,1,0
1582118183308,2646548,0,1,0
1582118183409,2646969,0,1,0
1582118183508,2647278,0,1,0
1582118183609,2647141,0,1,0
1582118183708,2647272,0,1,0
1582118183810,2647536,0,1,0
1582118183908,2647798,0,1,0
1582118184009,2648319,0,1,0
1582118184109,2648850,0,1,0
1582118184209,2649621,0,1,0
1582118184308,2650020,0,1,0
1582118184410,2649934,0,1,0
1582118184508,2649960,0,1,0
1582118184609,2650072,0,1,0
1582118184709,2650172,0,1,0
1582118184809,2650425,0,1,0
1582118184909,2650615,0,1,0
1582118185010,2650779,0,1,0
1582118185109,2650422,0,1,0
1582118185210,2649733,0,1,0
1582118185310,2649139,0,1,0
1582118185410,2648560,0,1,0
1582118185509,2648216,0,1,0
1582118185612,2647979,0,1,0
1582118185710,2647935,0,1,0
1582118185810,2647558,0,1,0
1582118185910,2647033,0,1,0
1582118186010,2645957,0,1,0
1582118186109,2645246,0,1,0
1582118186212,2644628,0,1,0
1582118186311,2644067,0,1,0
1582118186411,2643651,0,1,0
1582118186511,2643954,0,1,0
1582118186612,2643829,0,1,0
1582118186711,2643299,0,1,0
1582118186812,2643250,0,1,0
1582118186911,2643157,0,1,0
1582118187011,2643298,0,1,0
1582118187111,2643485,0,1,0
1582118187211,2643959,0,1,0
1582118187310,2644312,0,1,0
1582118187412,2644240,0,1,0
1582118187510,2644035,0,1,0
1582118187611,2643844,0,1,0
1582118187711,2643915,0,1,0
1582118187811,2644059,0,1,0
1582118187911,2644228,0,1,0
1582118188012,2644574,0,1,0
1582118188111,2644758,0,1,0
1582118188211,2644263,0,1,0
1582118188312,2643500,0,1,0
1582118188412,2642880,0,1,0
1582118188511,2642514,0,1,0
1582118188612,2642293,0,1,0
1582118188711,2642261,0,1,0
1582118188812,2642420,0,1,0
1582118188912,2642306,0,1,0
1582118189012,2641178,0,1,0
1582118189111,2640356,0,1,0
1582118189213,2639606,0,1,0
1582118189312,2638926,0,1,0
1582118189413,2638744,0,1,0
1582118189513,2638455,0,1,0
1582118189613,2638527,0,1,0
1582118189712,2638310,0,1,0
1582118189813,2637791,0,1,0
1582118189912,2637476,0,1,0
1582118190013,2637480,0,1,0
1582118190113,2637469,0,1,0
1582118190213,2637586,0,1,0
1582118190312,2638204,0,1,0
1582118190414,2638816,0,1,0
1582118190512,2639063,0,1,0
1582118190613,2639242,0,1,0
1582118190713,2639388,0,1,0
1582118190817,2639744,0,1,0
1582118190913,2640331,0,1,0
1582118191014,2641077,0,1,0
1582118191113,2641715,0,1,0
1582118191214,2642162,0,1,0
1582118191314,2642070,0,1,0
1582118191414,2641953,0,1,0
1582118191513,2641846,0,1,0
1582118191614,2641815,0,1,0
1582118191714,2641899,0,1,0
1582118191814,2642163,0,1,0
1582118191914,2642253,0,1,0
1582118192014,2642061,0,1,0
1582118192114,2641540,0,1,0
1582118192215,2640961,0,1,0
1582118192314,2640441,0,1,0
1582118192414,2640307,0,1,0
1582118192514,2640221,0,1,0
1582118192615,2640216,0,1,0
1582118192714,2640419,0,1,0
1582118192815,2640006,0,1,0
1582118192914,2639744,0,1,0
1582118193015,2639489,0,1,0
1582118193115,2639490,0,1,0
1582118193215,2639555,0,1,0
1582118193315,2639824,0,1,0
1582118193419,2640436,0,1,0
1582118193515,2641041,0,1,0
1582118193615,2641246,0,1,0
1582118193716,2641441,0,1,0
1582118193815,2642054,0,1,0
1582118193915,2642324,0,1,0
1582118194016,2643093,0,1,0
1582118194115,2643956,0,1,0
1582118194216,2644527,0,1,0
1582118194316,2644517,0,1,0
1582118194416,2644653,0,1,0
1582118194515,2644955,0,1,0
1582118194617,2645016,0,1,0
1582118194715,2645311,0,1,0
1582118194816,2645818,0,1,0
1582118194916,2646119,0,1,0
1582118195016,2646116,0,1,0
1582118195116,2645780,0,1,0
1582118195217,2645555,0,1,0
1582118195316,2645376,0,1,0
1582118195420,2645302,0,1,0
1582118195516,2645395,0,1,0
1582118195617,2645430,0,1,0
1582118195717,2645440,0,1,0
1582118195819,2645006,0,1,0
1582118195916,2644258,0,1,0
1582118196017,2643918,0,1,0
1582118196117,2643552,0,1,0
1582118196217,2643183,0,1,0
1582118196317,2643162,0,1,0
1582118196418,2643273,0,1,0
1582118196517,2643448,0,1,0
1582118196617,2643153,0,1,0
1582118196717,2643212,0,1,0
1582118196817,2643180,0,1,0
1582118196917,2643391,0,1,0
1582118197018,2643810,0,1,0
1582118197117,2644341,0,1,0
1582118197218,2645098,0,1,0
1582118197318,2645557,0,1,0
1582118197418,2645506,0,1,0
1582118197517,2645738,0,1,0
1582118197619,2645931,0,1,0
1582118197718,2646116,0,1,0
1582118197818,2646600,0,1,0
1582118197918,2646893,0,1,0
1582118198018,2647225,0,1,0
1582118198117,2646887,0,1,0
1582118198219,2646889,0,1,0
1582118198318,2646671,0,1,0
1582118198418,2646402,0,1,0
1582118198519,2646397,0,1,0
1582118198619,2646398,0,1,0
1582118198718,2646526,0,1,0
1582118198819,2646577,0,1,0
1582118198918,2646069,0,1,0
1582118199019,2645638,0,1,0
1582118199119,2645148,0,1,0
1582118199219,2644844,0,1,0
1582118199318,2644679,0,1,0
1582118199420,2644662,0,1,0
1582118199519,2644912,0,1,0
1582118199619,2644703,0,1,0
1582118199719,2644143,0,1,0
1582118199819,2644021,0,1,0
1582118199919,2643964,0,1,0
1582118200020,2643841,0,1,0
1582118200119,2644300,0,1,0
1582118200219,2644670,0,1,0
1582118200320,2645256,0,1,0
1582118200420,2645381,0,1,0
1582118200519,2645303,0,1,0
1582118200621,2645149,0,1,0
1582118200719,2645197,0,1,0
1582118200820,2645196,0,1,0
1582118200920,2645631,0,1,0
1582118201020,2646009,0,1,0
1582118201119,2646377,0,1,0
1582118201221,2646368,0,1,0
1582118201320,2645926,0,1,0
1582118201421,2645797,0,1,0
1582118201520,2645750,0,1,0
1582118201621,2645953,0,1,0
1582118201720,2646069,0,1,0
1582118201821,2646402,0,1,0
1582118201920,2646740,0,1,0
1582118202021,2646293,0,1,0
1582118202121,2645903,0,1,0
1582118202221,2645830,0,1,0
1582118202320,2645512,0,1,0
1582118202422,2645529,0,1,0
1582118202520,2645813,0,1,0
1582118202621,2645905,0,1,0
1582118202721,2646082,0,1,0
1582118202821,2645601,0,1,0
1582118202921,2645179,0,1,0
1582118203022,2645036,0,1,0
1582118203121,2644449,0,1,0
1582118203222,2644200,0,1,0
1582118203322,2644164,0,1,0
1582118203422,2644343,0,1,0
1582118203521,2644137,0,1,0
1582118203623,2643341,0,1,0
1582118203722,2642627,0,1,0
1582118203822,2641944,0,1,0
1582118203922,2641417,0,1,0
1582118204022,2641404,0,1,0
1582118204121,2641282,0,1,0
1582118204223,2641643,0,1,0
1582118204322,2641453,0,1,0
1582118204422,2640748,0,1,0
1582118204522,2640287,0,1,0
1582118204623,2640130,0,1,0
1582118204722,2640147,0,1,0
1582118204823,2640299,0,1,0
1582118204922,2640732,0,1,0
1582118205023,2641131,0,1,0
1582118205123,2641116,0,1,0
1582118205223,2640652,0,1,0
1582118205322,2640532,0,1,0
1582118205424,2640865,0,1,0
1582118205522,2641043,0,1,0
1582118205623,2641606,0,1,0
1582118205723,2642072,0,1,0
1582118205824,2642711,0,1,0
1582118205924,2642654,0,1,0
1582118206024,2642254,0,1,0
1582118206123,2642104,0,1,0
1582118206223,2642181,0,1,0
1582118206324,2642330,0,1,0
1582118206424,2642849,0,1,0
1582118206523,2643445,0,1,0
1582118206625,2643734,0,1,0
1582118206724,2643530,0,1,0
1582118206824,2643115,0,1,0
1582118206924,2643136,0,1,0
1582118207024,2643149,0,1,0
1582118207123,2643357,0,1,0
1582118207225,2643804,0,1,0
1582118207324,2644323,0,1,0
1582118207425,2644738,0,1,0
1582118207524,2644400,0,1,0
1582118207625,2644203,0,1,0
1582118207724,2644169,0,1,0
1582118207825,2644176,0,1,0
1582118207924,2644450,0,1,0
1582118208025,2644819,0,1,0
1582118208125,2645034,0,1,0
1582118208225,2645028,0,1,0
1582118208324,2644661,0,1,0
1582118208426,2644023,0,1,0
1582118208525,2643460,0,1,0
1582118208625,2642905,0,1,0
1582118208726,2642830,0,1,0
1582118208825,2642865,0,1,0
1582118208925,2643082,0,1,0
1582118209026,2643048,0,1,0
1582118209125,2642674,0,1,0
1582118209226,2642303,0,1,0
1582118209326,2642043,0,1,0
1582118209429,2642132,0,1,0
1582118209526,2642285,0,1,0
1582118209627,2642613,0,1,0
1582118209727,2643202,0,1,0
1582118209826,2643787,0,1,0
1582118209926,2644000,0,1,0
1582118210026,2644267,0,1,0
1582118210126,2644634,0,1,0
1582118210227,2645133,0,1,0
1582118210326,2645812,0,1,0
1582118210426,2646419,0,1,0
1582118210526,2647356,0,1,0
1582118210627,2648061,0,1,0
1582118210726,2648102,0,1,0
1582118210827,2648158,0,1,0
1582118210926,2648643,0,1,0
1582118211027,2648785,0,1,0
1582118211127,2649152,0,1,0
1582118211227,2649489,0,1,0
1582118211327,2650031,0,1,0
1582118211428,2650415,0,1,0
1582118211527,2650126,0,1,0
1582118211627,2649936,0,1,0
1582118211727,2649918,0,1,0
1582118211827,2649826,0,1,0
1582118211927,2649992,0,1,0
1582118212028,2650287,0,1,0
1582118212127,2650539,0,1,0
1582118212227,2650465,0,1,0
1582118212328,2650099,0,1,0
1582118212428,2649675,0,1,0
1582118212527,2649549,0,1,0
1582118212629,2649266,0,1,0
1582118212727,2649194,0,1,0
1582118212828,2649351,0,1,0
1582118212928,2649607,0,1,0
1582118213028,2649971,0,1,0
1582118213127,2649906,0,1,0
1582118213229,2650087,0,1,0
1582118213328,2650090,0,1,0
1582118213429,2650394,0,1,0
1582118213529,2650812,0,1,0
1582118213629,2651337,0,1,0
1582118213728,2651916,0,1,0
1582118213830,2652713,0,1,0
1582118213928,2653147,0,1,0
1582118214029,2653233,0,1,0
1582118214129,2653418,0,1,0
1582118214229,2653710,0,1,0
1582118214328,2654176,0,1,0
1582118214430,2654910,0,1,0
1582118214528,2655419,0,1,0
1582118214629,2655975,0,1,0
1582118214729,2656149,0,1,0
1582118214829,2656042,0,1,0
1582118214929,2656088,0,1,0
1582118215030,2656128,0,1,0
1582118215129,2656052,0,1,0
1582118215230,2656183,0,1,0
1582118215330,2656314,0,1,0
1582118215430,2656674,0,1,0
1582118215529,2656649,0,1,0
1582118215631,2656329,0,1,0
1582118215730,2656000,0,1,0
1582118215830,2655790,0,1,0
1582118215930,2655567,0,1,0
1582118216030,2655419,0,1,0
1582118216130,2655506,0,1,0
1582118216231,2655643,0,1,0
1582118216330,2655459,0,1,0
1582118216430,2654851,0,1,0
1582118216530,2654255,0,1,0
1582118216631,2653729,0,1,0
1582118216731,2653434,0,1,0
1582118216831,2653258,0,1,0
1582118216930,2653260,0,1,0
1582118217031,2653289,0,1,0
1582118217131,2653349,0,1,0
1582118217231,2653129,0,1,0
1582118217332,2652785,0,1,0
1582118217433,2652634,0,1,0
1582118217532,2652641,0,1,0
1582118217633,2652974,0,1,0
1582118217732,2653333,0,1,0
1582118217832,2653798,0,1,0
1582118217931,2653777,0,1,0
1582118218033,2653771,0,1,0
1582118218131,2653824,0,1,0
1582118218232,2653677,0,1,0
1582118218332,2653768,0,1,0
1582118218432,2654015,0,1,0
1582118218531,2654195,0,1,0
1582118218633,2654587,0,1,0
1582118218731,2654264,0,1,0
1582118218832,2653768,0,1,0
1582118218932,2653178,0,1,0
1582118219032,2653146,0,1,0
1582118219132,2652905,0,1,0
1582118219233,2652566,0,1,0
1582118219332,2652629,0,1,0
1582118219433,2652761,0,1,0
1582118219533,2652193,0,1,0
1582118219633,2651428,0,1,0
1582118219732,2650628,0,1,0
1582118219833,2650170,0,1,0
1582118219932,2649774,0,1,0
1582118220033,2649448,0,1,0
1582118220133,2649206,0,1,0
1582118220233,2649162,0,1,0
1582118220332,2648985,0,1,0
1582118220434,2648477,0,1,0
1582118220532,2648026,0,1,0
1582118220633,2647959,0,1,0
1582118220733,2647725,0,1,0
1582118220834,2647817,0,1,0
1582118220933,2648007,0,1,0
1582118221034,2648269,0,1,0
1582118221133,2648248,0,1,0
1582118221234,2647834,0,1,0
1582118221334,2647704,0,1,0
1582118221434,2647541,0,1,0
1582118221533,2647890,0,1,0
1582118221635,2647967,0,1,0
1582118221734,2648502,0,1,0
1582118221834,2648965,0,1,0
1582118221935,2649093,0,1,0
1582118222034,2648678,0,1,0
1582118222134,2648475,0,1,0
1582118222235,2648034,0,1,0
1582118222334,2647743,0,1,0
1582118222434,2647608,0,1,0
1582118222534,2647525,0,1,0
1582118222635,2647402,0,1,0
1582118222734,2646984,0,1,0
1582118222835,2645922,0,1,0
1582118222934,2645262,0,1,0
1582118223035,2644439,0,1,0
1582118223135,2643772,0,1,0
1582118223235,2643157,0,1,0
1582118223334,2643073,0,1,0
1582118223439,2643080,0,1,0
1582118223535,2642903,0,1,0
1582118223636,2642141,0,1,0
1582118223736,2641800,0,1,0
1582118223836,2641132,0,1,0
1582118223935,2640901,0,1,0
1582118224036,2640672,0,1,0
1582118224135,2641173,0,1,0
1582118224236,2641400,0,1,0
1582118224336,2641427,0,1,0
1582118224436,2640911,0,1,0
1582118224535,2640629,0,1,0
1582118224637,2640314,0,1,0
1582118224735,2640368,0,1,0
1582118224836,2640563,0,1,0
1582118224936,2640715,0,1,0
1582118225036,2640868,0,1,0
1582118225136,2640615,0,1,0
1582118225237,2639668,0,1,0
1582118225336,2639088,0,1,0
1582118225440,2638450,0,1,0
1582118225537,2638238,0,1,0
1582118225637,2638090,0,1,0
1582118225737,2638003,0,1,0
1582118225838,2638152,0,1,0
1582118225936,2637488,0,1,0
1582118226037,2636406,0,1,0
1582118226137,2635470,0,1,0
1582118226237,2634653,0,1,0
1582118226337,2634278,0,1,0
1582118226438,2634228,0,1,0
1582118226537,2634279,0,1,0
1582118226637,2634312,0,1,0
1582118226737,2634443,0,1,0
1582118226837,2633619,0,1,0
1582118226937,2633038,0,1,0
1582118227038,2632932,0,1,0
1582118227137,2632449,0,1,0
1582118227238,2632556,0,1,0
1582118227338,2633044,0,1,0
1582118227438,2633620,0,1,0
1582118227539,2633796,0,1,0
1582118227639,2633440,0,1,0
1582118227738,2633509,0,1,0
1582118227838,2634136,0,1,0
1582118227939,2634644,0,1,0
1582118228038,2635464,0,1,0
1582118228138,2636295,0,1,0
1582118228239,2637487,0,1,0
1582118228338,2637585,0,1,0
1582118228438,2637599,0,1,0
1582118228539,2637830,0,1,0
1582118228639,2637619,0,1,0
1582118228738,2637948,0,1,0
1582118228839,2638255,0,1,0
1582118228938,2638876,0,1,0
1582118229039,2639214,0,1,0
1582118229139,2638809,0,1,0
1582118229240,2638382,0,1,0
1582118229338,2637898,0,1,0
1582118229440,2637478,0,1,0
1582118229539,2637521,0,1,0
1582118229639,2637668,0,1,0
1582118229739,2637984,0,1,0
1582118229839,2637890,0,1,0
1582118229939,2637294,0,1,0
1582118230040,2636372,0,1,0
1582118230139,2635881,0,1,0
1582118230239,2635763,0,1,0
1582118230340,2635662,0,1,0
1582118230440,2636139,0,1,0
1582118230539,2636384,0,1,0
1582118230641,2636253,0,1,0
1582118230740,2636280,0,1,0
1582118230840,2636381,0,1,0
1582118230940,2636691,0,1,0
1582118231040,2637313,0,1,0
1582118231140,2638031,0,1,0
1582118231241,2638827,0,1,0
1582118231340,2639296,0,1,0
1582118231441,2639798,0,1,0
1582118231541,2640099,0,1,0
1582118231641,2640594,0,1,0
1582118231740,2640903,0,1,0
1582118231841,2641475,0,1,0
1582118231940,2641786,0,1,0
1582118232041,2641841,0,1,0
1582118232141,2641675,0,1,0
1582118232241,2641664,0,1,0
1582118232340,2641759,0,1,0
1582118232442,2641995,0,1,0
1582118232542,2642138,0,1,0
1582118232641,2642265,0,1,0
1582118232741,2642217,0,1,0
1582118232841,2641813,0,1,0
1582118232941,2641633,0,1,0
1582118233042,2641526,0,1,0
1582118233141,2641428,0,1,0
1582118233242,2641469,0,1,0
1582118233342,2641828,0,1,0
1582118233442,2642226,0,1,0
1582118233542,2642680,0,1,0
1582118233642,2643229,0,1,0
1582118233742,2643607,0,1,0
1582118233842,2644210,0,1,0
1582118233942,2644866,0,1,0
1582118234042,2645830,0,1,0
1582118234142,2646392,0,1,0
1582118234243,2646912,0,1,0
1582118234342,2647244,0,1,0
1582118234442,2647636,0,1,0
1582118234542,2647715,0,1,0
1582118234643,2648222,0,1,0
1582118234742,2648608,0,1,0
1582118234843,2648798,0,1,0
1582118234942,2648783,0,1,0
1582118235043,2648719,0,1,0
1582118235143,2648651,0,1,0
1582118235243,2648703,0,1,0
1582118235342,2648918,0,1,0
1582118235444,2648802,0,1,0
1582118235543,2648736,0,1,0
1582118235644,2648200,0,1,0
1582118235743,2648021,0,1,0
1582118235844,2647843,0,1,0
1582118235943,2647556,0,1,0
1582118236044,2647501,0,1,0
1582118236143,2647474,0,1,0
1582118236244,2647839,0,1,0
1582118236344,2648020,0,1,0
1582118236444,2648266,0,1,0
1582118236544,2648481,0,1,0
1582118236644,2648879,0,1,0
1582118236743,2649351,0,1,0
1582118236844,2649672,0,1,0
1582118236944,2650370,0,1,0
1582118237044,2650782,0,1,0
1582118237144,2651389,0,1,0
1582118237245,2651987,0,1,0
1582118237344,2652736,0,1,0
1582118237447,2653139,0,1,0
1582118237546,2653799,0,1,0
1582118237646,2654427,0,1,0
1582118237746,2654758,0,1,0
1582118237846,2654905,0,1,0
1582118237945,2655255,0,1,0
1582118238046,2655300,0,1,0
1582118238146,2655562,0,1,0
1582118238247,2655718,0,1,0
1582118238346,2655907,0,1,0
1582118238447,2655625,0,1,0
1582118238547,2655268,0,1,0
1582118238647,2655247,0,1,0
1582118238747,2655033,0,1,0
1582118238847,2654915,0,1,0
1582118238946,2654861,0,1,0
1582118239047,2654651,0,1,0
1582118239147,2654478,0,1,0
1582118239247,2653829,0,1,0
1582118239347,2653380,0,1,0
1582118239448,2652704,0,1,0
1582118239547,2652408,0,1,0
1582118239648,2652185,0,1,0
1582118239747,2652169,0,1,0
1582118239848,2652121,0,1,0
1582118239948,2651965,0,1,0
1582118240048,2652057,0,1,0
1582118240147,2651944,0,1,0
1582118240248,2652087,0,1,0
1582118240348,2652196,0,1,0
1582118240447,2652818,0,1,0
1582118240547,2653273,0,1,0
1582118240647,2653520,0,1,0
1582118240746,2653594,0,1,0
1582118240847,2653954,0,1,0
1582118240947,2654527,0,1,0
1582118241047,2655097,0,1,0
1582118241147,2655837,0,1,0
1582118241247,2656474,0,1,0
1582118241347,2656652,0,1,0
1582118241448,2656949,0,1,0
1582118241547,2656963,0,1,0
1582118241647,2657057,0,1,0
1582118241747,2657013,0,1,0
1582118241848,2657220,0,1,0
1582118241947,2657190,0,1,0
1582118242048,2656930,0,1,0
1582118242147,2656283,0,1,0
1582118242248,2656138,0,1,0
1582118242348,2655629,0,1,0
1582118242448,2655338,0,1,0
1582118242548,2655146,0,1,0
1582118242648,2654891,0,1,0
1582118242747,2654597,0,1,0
1582118242848,2654018,0,1,0
1582118242948,2653474,0,1,0
1582118243048,2652982,0,1,0
1582118243148,2652535,0,1,0
1582118243249,2652313,0,1,0
1582118243348,2652370,0,1,0
1582118243449,2652558,0,1,0
1582118243550,2652689,0,1,0
1582118243649,2652490,0,1,0
1582118243748,2652395,0,1,0
1582118243849,2652441,0,1,0
1582118243948,2652535,0,1,0
1582118244049,2652927,0,1,0
1582118244149,2653225,0,1,0
1582118244249,2653405,0,1,0
1582118244348,2653211,0,1,0
1582118244450,2653036,0,1,0
1582118244549,2653187,0,1,0
1582118244650,2653126,0,1,0
1582118244749,2653249,0,1,0
1582118244849,2653602,0,1,0
1582118244949,2654033,0,1,0
1582118245050,2654242,0,1,0
1582118245149,2653657,0,1,0
1582118245250,2653471,0,1,0
1582118245350,2653381,0,1,0
1582118245450,2653522,0,1,0
1582118245549,2653666,0,1,0
1582118245650,2653837,0,1,0
1582118245750,2653934,0,1,0
1582118245851,2653686,0,1,0
1582118245950,2653199,0,1,0
1582118246050,2652892,0,1,0
1582118246150,2652614,0,1,0
1582118246251,2652552,0,1,0
1582118246350,2652432,0,1,0
1582118246451,2652320,0,1,0
1582118246551,2652423,0,1,0
1582118246651,2651870,0,1,0
1582118246750,2651563,0,1,0
1582118246851,2651383,0,1,0
1582118246951,2651384,0,1,0
1582118247051,2651241,0,1,0
1582118247151,2651393,0,1,0
1582118247251,2651627,0,1,0
1582118247350,2651596,0,1,0
1582118247452,2651145,0,1,0
1582118247551,2650906,0,1,0
1582118247652,2650720,0,1,0
1582118247751,2650763,0,1,0
1582118247852,2650826,0,1,0
1582118247953,2651177,0,1,0
1582118248053,2651416,0,1,0
1582118248152,2650888,0,1,0
1582118248253,2650521,0,1,0
1582118248352,2650311,0,1,0
1582118248452,2650048,0,1,0
1582118248552,2650016,0,1,0
1582118248653,2650397,0,1,0
1582118248751,2650634,0,1,0
1582118248852,2650558,0,1,0
1582118248952,2650001,0,1,0
1582118249052,2649513,0,1,0
1582118249152,2649192,0,1,0
1582118249253,2649018,0,1,0
1582118249352,2649011,0,1,0
1582118249453,2649140,0,1,0
1582118249553,2649341,0,1,0
1582118249653,2648830,0,1,0
1582118249752,2647984,0,1,0
1582118249853,2647557,0,1,0
1582118249952,2646898,0,1,0
1582118250053,2646530,0,1,0
1582118250153,2646196,0,1,0
1582118250253,2646253,0,1,0
1582118250352,2646298,0,1,0
1582118250454,2645624,0,1,0
1582118250553,2644887,0,1,0
1582118250654,2644238,0,1,0
1582118250753,2643722,0,1,0
1582118250854,2643217,0,1,0
1582118250953,2643142,0,1,0
1582118251054,2643079,0,1,0
1582118251153,2643092,0,1,0
1582118251254,2642151,0,1,0
1582118251354,2641456,0,1,0
1582118251454,2641059,0,1,0
1582118251553,2640875,0,1,0
1582118251654,2640730,0,1,0
1582118251754,2641160,0,1,0
1582118251854,2641727,0,1,0
1582118251954,2642165,0,1,0
1582118252054,2641992,0,1,0
1582118252154,2641749,0,1,0
1582118252255,2642007,0,1,0
1582118252354,2642075,0,1,0
1582118252454,2642351,0,1,0
1582118252555,2642859,0,1,0
1582118252655,2643572,0,1,0
1582118252754,2643506,0,1,0
1582118252855,2642936,0,1,0
1582118252954,2642772,0,1,0
1582118253055,2642919,0,1,0
1582118253155,2643057,0,1,0
1582118253255,2643506,0,1,0
1582118253354,2644238,0,1,0
1582118253459,2644350,0,1,0
1582118253555,2643683,0,1,0
1582118253655,2643294,0,1,0
1582118253756,2642951,0,1,0
1582118253856,2642806,0,1,0
1582118253955,2642919,0,1,0
1582118254056,2642995,0,1,0
1582118254155,2642724,0,1,0
1582118254256,2641922,0,1,0
1582118254356,2641109,0,1,0
1582118254456,2640585,0,1,0
1582118254555,2640325,0,1,0
1582118254656,2640141,0,1,0
1582118254755,2640168,0,1,0
1582118254856,2640179,0,1,0
1582118254956,2639314,0,1,0
1582118255056,2638297,0,1,0
1582118255156,2637580,0,1,0
1582118255257,2637071,0,1,0
1582118255356,2636783,0,1,0
1582118255460,2636774,0,1,0
1582118255557,2636897,0,1,0
1582118255657,2636744,0,1,0
1582118255758,2636200,0,1,0
1582118255858,2635697,0,1,0
1582118255957,2635452,0,1,0
1582118256057,2635470,0,1,0
1582118256157,2635433,0,1,0
1582118256257,2635824,0,1,0
1582118256357,2636263,0,1,0
1582118256458,2636575,0,1,0
1582118256557,2635916,0,1,0
1582118256658,2635607,0,1,0
1582118256757,2635696,0,1,0
1582118256857,2635613,0,1,0
1582118256957,2635901,0,1,0
1582118257058,2636446,0,1,0
1582118257157,2636967,0,1,0
1582118257258,2637080,0,1,0
1582118257358,2636617,0,1,0
1582118257458,2636399,0,1,0
1582118257558,2636556,0,1,0
1582118257658,2636630,0,1,0
1582118257758,2637045,0,1,0
1582118257859,2637556,0,1,0
1582118257958,2637992,0,1,0
1582118258058,2637625,0,1,0
1582118258158,2637081,0,1,0
1582118258259,2636709,0,1,0
1582118258358,2636575,0,1,0
1582118258459,2636950,0,1,0
1582118258559,2637272,0,1,0
1582118258659,2637710,0,1,0
1582118258758,2637612,0,1,0
1582118258860,2637201,0,1,0
1582118258958,2636812,0,1,0
1582118259059,2636709,0,1,0
1582118259159,2636412,0,1,0
1582118259259,2636564,0,1,0
1582118259358,2636644,0,1,0
1582118259460,2637117,0,1,0
1582118259559,2636980,0,1,0
1582118259659,2636897,0,1,0
1582118259759,2637089,0,1,0
1582118259860,2637303,0,1,0
1582118259959,2637598,0,1,0
1582118260060,2638132,0,1,0
1582118260159,2638590,0,1,0
1582118260260,2638810,0,1,0
1582118260360,2638783,0,1,0
1582118260460,2638771,0,1,0
1582118260559,2639014,0,1,0
1582118260660,2639554,0,1,0
1582118260759,2639836,0,1,0
1582118260860,2640322,0,1,0
1582118260960,2640631,0,1,0
1582118261060,2640517,0,1,0
1582118261160,2640525,0,1,0
1582118261261,2640375,0,1,0
1582118261360,2640275,0,1,0
1582118261461,2640281,0,1,0
1582118261561,2640528,0,1,0
1582118261661,2640980,0,1,0
1582118261760,2640970,0,1,0
1582118261861,2640683,0,1,0
1582118261960,2639941,0,1,0
1582118262061,2639672,0,1,0
1582118262161,2639272,0,1,0
1582118262261,2639168,0,1,0
1582118262360,2639192,0,1,0
1582118262462,2639382,0,1,0
1582118262561,2639638,0,1,0
1582118262661,2639549,0,1,0
1582118262761,2639288,0,1,0
1582118262861,2639157,0,1,0
1582118262961,2639004,0,1,0
1582118263062,2639000,0,1,0
1582118263161,2639370,0,1,0
1582118263262,2639809,0,1,0
1582118263362,2640260,0,1,0
1582118263462,2640645,0,1,0
1582118263561,2640461,0,1,0
1582118263662,2640725,0,1,0
1582118263762,2640782,0,1,0
1582118263862,2640920,0,1,0
1582118263962,2641420,0,1,0
1582118264062,2641774,0,1,0
1582118264162,2642232,0,1,0
1582118264263,2642788,0,1,0
1582118264362,2642747,0,1,0
1582118264462,2642321,0,1,0
1582118264563,2642127,0,1,0
1582118264663,2641966,0,1,0
1582118264762,2641862,0,1,0
1582118264863,2641955,0,1,0
1582118264962,2641904,0,1,0
1582118265063,2642019,0,1,0
1582118265163,2641659,0,1,0
1582118265263,2641135,0,1,0
1582118265362,2640762,0,1,0
1582118265464,2640258,0,1,0
1582118265563,2640023,0,1,0
1582118265663,2639850,0,1,0
1582118265763,2639771,0,1,0
1582118265864,2639961,0,1,0
1582118265963,2639675,0,1,0
1582118266064,2639332,0,1,0
1582118266163,2638990,0,1,0
1582118266264,2639142,0,1,0
1582118266364,2639221,0,1,0
1582118266464,2639382,0,1,0
1582118266564,2639624,0,1,0
1582118266664,2640156,0,1,0
1582118266763,2640164,0,1,0
1582118266864,2640270,0,1,0
1582118266964,2640284,0,1,0
1582118267064,2640247,0,1,0
1582118267164,2640537,0,1,0
1582118267265,2640991,0,1,0
1582118267364,2641416,0,1,0
1582118267465,2641918,0,1,0
1582118267565,2641662,0,1,0
1582118267667,2641399,0,1,0
1582118267764,2641341,0,1,0
1582118267865,2641022,0,1,0
1582118267964,2640973,0,1,0
1582118268065,2640848,0,1,0
1582118268165,2641028,0,1,0
1582118268265,2641316,0,1,0
1582118268364,2640877,0,1,0
1582118268466,2640282,0,1,0
1582118268565,2639644,0,1,0
1582118268665,2639394,0,1,0
1582118268765,2639029,0,1,0
1582118268865,2638931,0,1,0
1582118268965,2638880,0,1,0
1582118269066,2638644,0,1,0
1582118269165,2638104,0,1,0
1582118269266,2637525,0,1,0
1582118269366,2636728,0,1,0
1582118269469,2636364,0,1,0
1582118269566,2636070,0,1,0
1582118269667,2635974,0,1,0
1582118269767,2635883,0,1,0
1582118269866,2635812,0,1,0
1582118269966,2635423,0,1,0
1582118270066,2634798,0,1,0
1582118270166,2634328,0,1,0
1582118270267,2633916,0,1,0
1582118270366,2633524,0,1,0
1582118270467,2633535,0,1,0
1582118270567,2633570,0,1,0
1582118270667,2633022,0,1,0
1582118270766,2632735,0,1,0
1582118270867,2632695,0,1,0
1582118270967,2632799,0,1,0
1582118271067,2632812,0,1,0
1582118271167,2633444,0,1,0
1582118271267,2633545,0,1,0
1582118271367,2633471,0,1,0
1582118271468,2633708,0,1,0
1582118271567,2633953,0,1,0
1582118271667,2634396,0,1,0
1582118271767,2634895,0,1,0
1582118271868,2635354,0,1,0
1582118271967,2635117,0,1,0
1582118272068,2634891,0,1,0
1582118272167,2635009,0,1,0
1582118272268,2634916,0,1,0
1582118272368,2634815,0,1,0
1582118272468,2635153,0,1,0
1582118272568,2635147,0,1,0
1582118272669,2634554,0,1,0
1582118272767,2634334,0,1,0
1582118272868,2633981,0,1,0
1582118272968,2633442,0,1,0
1582118273068,2633447,0,1,0
1582118273168,2633203,0,1,0
1582118273269,2633443,0,1,0
1582118273368,2633094,0,1,0
1582118273469,2632560,0,1,0
1582118273569,2631995,0,1,0
1582118273669,2631523,0,1,0
1582118273768,2631084,0,1,0
1582118273870,2631133,0,1,0
1582118273968,2631227,0,1,0
1582118274069,2631782,0,1,0
1582118274169,2631969,0,1,0
1582118274269,2631974,0,1,0
1582118274369,2632050,0,1,0
1582118274470,2632276,0,1,0
1582118274569,2632632,0,1,0
1582118274669,2633004,0,1,0
1582118274769,2633709,0,1,0
1582118274869,2634558,0,1,0
1582118274969,2634780,0,1,0
1582118275070,2635048,0,1,0
1582118275169,2635554,0,1,0
1582118275270,2635775,0,1,0
1582118275370,2636426,0,1,0
1582118275470,2636985,0,1,0
1582118275570,2637613,0,1,0
1582118275670,2638325,0,1,0
1582118275770,2638451,0,1,0
1582118275871,2638460,0,1,0
1582118275970,2638670,0,1,0
1582118276070,2638727,0,1,0
1582118276170,2638738,0,1,0
1582118276271,2638895,0,1,0
1582118276370,2639178,0,1,0
1582118276471,2639317,0,1,0
1582118276571,2638938,0,1,0
1582118276671,2638474,0,1,0
1582118276770,2638348,0,1,0
1582118276871,2638117,0,1,0
1582118276971,2638140,0,1,0
1582118277071,2637660,0,1,0
1582118277171,2637804,0,1,0
1582118277271,2638213,0,1,0
1582118277371,2638182,0,1,0
1582118277472,2638359,0,1,0
1582118277571,2638421,0,1,0
1582118277671,2638602,0,1,0
1582118277771,2638776,0,1,0
1582118277872,2639077,0,1,0
1582118277971,2639540,0,1,0
1582118278072,2640030,0,1,0
1582118278171,2640300,0,1,0
1582118278273,2640485,0,1,0
1582118278373,2640887,0,1,0
1582118278473,2641259,0,1,0
1582118278574,2641699,0,1,0
1582118278673,2642198,0,1,0
1582118278772,2642437,0,1,0
1582118278873,2642371,0,1,0
1582118278973,2642290,0,1,0
1582118279072,2642316,0,1,0
1582118279172,2642136,0,1,0
1582118279273,2642185,0,1,0
1582118279372,2642389,0,1,0
1582118279473,2642295,0,1,0
1582118279573,2641700,0,1,0
1582118279673,2641301,0,1,0
1582118279772,2640754,0,1,0
1582118279873,2640463,0,1,0
1582118279972,2640301,0,1,0
1582118280073,2640222,0,1,0
1582118280173,2640016,0,1,0
1582118280273,2639261,0,1,0
1582118280372,2638582,0,1,0
1582118280474,2637849,0,1,0
1582118280573,2637193,0,1,0
1582118280674,2636977,0,1,0
1582118280773,2636968,0,1,0
1582118280874,2637131,0,1,0
1582118280973,2636833,0,1,0
1582118281074,2636570,0,1,0
1582118281173,2636598,0,1,0
1582118281274,2636533,0,1,0
1582118281374,2636649,0,1,0
1582118281474,2637277,0,1,0
1582118281573,2637764,0,1,0
1582118281674,2637673,0,1,0
1582118281774,2637703,0,1,0
1582118281874,2637779,0,1,0
1582118281974,2637950,0,1,0
1582118282074,2638428,0,1,0
1582118282174,2638750,0,1,0
1582118282275,2638966,0,1,0
1582118282374,2638821,0,1,0
1582118282475,2638462,0,1,0
1582118282575,2638322,0,1,0
1582118282675,2638151,0,1,0
1582118282774,2638025,0,1,0
1582118282875,2638190,0,1,0
1582118282974,2638146,0,1,0
1582118283075,2637565,0,1,0
1582118283175,2637078,0,1,0
1582118283275,2636626,0,1,0
1582118283375,2636159,0,1,0
1582118283479,2635918,0,1,0
1582118283575,2635951,0,1,0
1582118283676,2635950,0,1,0
1582118283776,2635680,0,1,0
1582118283876,2635329,0,1,0
1582118283975,2635107,0,1,0
1582118284076,2634922,0,1,0
1582118284175,2634890,0,1,0
1582118284276,2635158,0,1,0
1582118284376,2635575,0,1,0
1582118284476,2635913,0,1,0
1582118284576,2635692,0,1,0
1582118284677,2635950,0,1,0
1582118284776,2636313,0,1,0
1582118284876,2636575,0,1,0
1582118284976,2637196,0,1,0
1582118285076,2637893,0,1,0
1582118285176,2638219,0,1,0
1582118285277,2638100,0,1,0
1582118285376,2638342,0,1,0
1582118285480,2638602,0,1,0
1582118285577,2638854,0,1,0
1582118285677,2639192,0,1,0
1582118285778,2639702,0,1,0
1582118285878,2640176,0,1,0
1582118285977,2639926,0,1,0
1582118286077,2639803,0,1,0
1582118286177,2639317,0,1,0
1582118286277,2639166,0,1,0
1582118286377,2638983,0,1,0
1582118286478,2639206,0,1,0
1582118286577,2639098,0,1,0
1582118286678,2638706,0,1,0
1582118286777,2638220,0,1,0
1582118286877,2637646,0,1,0
1582118286977,2637195,0,1,0
1582118287078,2636778,0,1,0
1582118287181,2636445,0,1,0
1582118287278,2636353,0,1,0
1582118287378,2636038,0,1,0
1582118287478,2635414,0,1,0
1582118287578,2634951,0,1,0
1582118287678,2634579,0,1,0
1582118287778,2634701,0,1,0
1582118287878,2635052,0,1,0
1582118287978,2635408,0,1,0
1582118288078,2635586,0,1,0
1582118288178,2635524,0,1,0
1582118288279,2635814,0,1,0
1582118288378,2636145,0,1,0
1582118288478,2636714,0,1,0
1582118288579,2637231,0,1,0
1582118288679,2638054,0,1,0
1582118288778,2638712,0,1,0
1582118288879,2638751,0,1,0
1582118288979,2638920,0,1,0
1582118289079,2639046,0,1,0
1582118289179,2639494,0,1,0
1582118289279,2639931,0,1,0
1582118289378,2640730,0,1,0
1582118289480,2641069,0,1,0
1582118289580,2641048,0,1,0
1582118289679,2640730,0,1,0
1582118289779,2640503,0,1,0
1582118289880,2640607,0,1,0
1582118289979,2640496,0,1,0
1582118290080,2640597,0,1,0
1582118290179,2640949,0,1,0
1582118290280,2640882,0,1,0
1582118290380,2640568,0,1,0
1582118290480,2640053,0,1,0
1582118290579,2639875,0,1,0
1582118290680,2639477,0,1,0
1582118290779,2639123,0,1,0
1582118290880,2639227,0,1,0
1582118290980,2639456,0,1,0
1582118291080,2639017,0,1,0
1582118291180,2638282,0,1,0
1582118291281,2637720,0,1,0
1582118291380,2637558,0,1,0
1582118291481,2637137,0,1,0
1582118291581,2637411,0,1,0
1582118291681,2637685,0,1,0
1582118291780,2638077,0,1,0
1582118291881,2638100,0,1,0
1582118291980,2638027,0,1,0
1582118292081,2638374,0,1,0
1582118292181,2638993,0,1,0
1582118292281,2639507,0,1,0
1582118292380,2640202,0,1,0
1582118292482,2640914,0,1,0
1582118292581,2641230,0,1,0
1582118292681,2641316,0,1,0
1582118292781,2641914,0,1,0
1582118292881,2642456,0,1,0
1582118292981,2643147,0,1,0
1582118293082,2643780,0,1,0
1582118293181,2644654,0,1,0
1582118293282,2644994,0,1,0
1582118293382,2645378,0,1,0
1582118293482,2645783,0,1,0
1582118293582,2646288,0,1,0
1582118293682,2646862,0,1,0
1582118293782,2647659,0,1,0
1582118293882,2648212,0,1,0
1582118293982,2648819,0,1,0
1582118294082,2649259,0,1,0
1582118294182,2649346,0,1,0
1582118294283,2649691,0,1,0
1582118294382,2650147,0,1,0
1582118294482,2650520,0,1,0
1582118294583,2651308,0,1,0
1582118294683,2651715,0,1,0
1582118294782,2652375,0,1,0
1582118294883,2652514,0,1,0
1582118294982,2652908,0,1,0
1582118295083,2653178,0,1,0
1582118295183,2653527,0,1,0
1582118295283,2654025,0,1,0
1582118295383,2654405,0,1,0
1582118295484,2654801,0,1,0
1582118295583,2655106,0,1,0
1582118295684,2655349,0,1,0
1582118295784,2655724,0,1,0
1582118295884,2656010,0,1,0
1582118295983,2656522,0,1,0
1582118296084,2657116,0,1,0
1582118296183,2657672,0,1,0
1582118296284,2658163,0,1,0
1582118296383,2658457,0,1,0
1582118296484,2658728,0,1,0
1582118296584,2659069,0,1,0
1582118296684,2659478,0,1,0
1582118296783,2659998,0,1,0
1582118296884,2660500,0,1,0
1582118296984,2660866,0,1,0
1582118297084,2661153,0,1,0
1582118297184,2661297,0,1,0
1582118297285,2661579,0,1,0
1582118297384,2661944,0,1,0
1582118297485,2662172,0,1,0
1582118297585,2662287,0,1,0
1582118297685,2662804,0,1,0
1582118297784,2663058,0,1,0
1582118297885,2663027,0,1,0
1582118297984,2663229,0,1,0
1582118298085,2663282,0,1,0
1582118298185,2663427,0,1,0
1582118298285,2663375,0,1,0
1582118298385,2663443,0,1,0
1582118298486,2663668,0,1,0
1582118298585,2663746,0,1,0
1582118298685,2663608,0,1,0
1582118298785,2663658,0,1,0
1582118298885,2663436,0,1,0
1582118298985,2663528,0,1,0
1582118299086,2663641,0,1,0
1582118299185,2663754,0,1,0
1582118299286,2663976,0,1,0
1582118299386,2663988,0,1,0
1582118299489,2664001,0,1,0
1582118299586,2663994,0,1,0
1582118299687,2663943,0,1,0
1582118299789,2663947,0,1,0
1582118299887,2664043,0,1,0
1582118299986,2664060,0,1,0
1582118300086,2664230,0,1,0
1582118300186,2664037,0,1,0
1582118300287,2663625,0,1,0
1582118300386,2663568,0,1,0
1582118300487,2663364,0,1,0
1582118300587,2663099,0,1,0
1582118300687,2663141,0,1,0
1582118300786,2663217,0,1,0
1582118300887,2663250,0,1,0
1582118300987,2662753,0,1,0
1582118301087,2662193,0,1,0
1582118301187,2661710,0,1,0
1582118301287,2661325,0,1,0
1582118301387,2661024,0,1,0
1582118301488,2660743,0,1,0
1582118301587,2660524,0,1,0
1582118301687,2660239,0,1,0
1582118301787,2659507,0,1,0
1582118301888,2658504,0,1,0
1582118301987,2657833,0,1,0
1582118302088,2656907,0,1,0
1582118302187,2656426,0,1,0
1582118302288,2656055,0,1,0
1582118302388,2655893,0,1,0
1582118302488,2655735,0,1,0
1582118302588,2654965,0,1,0
1582118302688,2654424,0,1,0
1582118302787,2654064,0,1,0
1582118302888,2653566,0,1,0
1582118302988,2653638,0,1,0
1582118303088,2653558,0,1,0
1582118303188,2653701,0,1,0
1582118303289,2653708,0,1,0
1582118303388,2652931,0,1,0
1582118303489,2652231,0,1,0
1582118303590,2652104,0,1,0
1582118303689,2652059,0,1,0
1582118303788,2652305,0,1,0
1582118303889,2652644,0,1,0
1582118303989,2652587,0,1,0
1582118304089,2651831,0,1,0
1582118304189,2651396,0,1,0
1582118304289,2651134,0,1,0
1582118304389,2650872,0,1,0
1582118304490,2651047,0,1,0
1582118304589,2651170,0,1,0
1582118304689,2651357,0,1,0
1582118304790,2650893,0,1,0
1582118304890,2650172,0,1,0
1582118304989,2649562,0,1,0
1582118305090,2648666,0,1,0
1582118305189,2648642,0,1,0
1582118305290,2650454,0,1,0
1582118305390,2651916,0,1,0
1582118305490,2653485,0,1,0
1582118305590,2654277,0,1,0
1582118305691,2654628,0,1,0
1582118305790,2655014,0,1,0
1582118305891,2655653,0,1,0
1582118305990,2656434,0,1,0
1582118306092,2657225,0,1,0
1582118306190,2658148,0,1,0
1582118306291,2659336,0,1,0
1582118306390,2660378,0,1,0
1582118306491,2660502,0,1,0
1582118306591,2661134,0,1,0
1582118306691,2661650,0,1,0
1582118306790,2662068,0,1,0
1582118306891,2662926,0,1,0
1582118306991,2663619,0,1,0
1582118307091,2664192,0,1,0
1582118307191,2664418,0,1,0
1582118307291,2664488,0,1,0
1582118307391,2664764,0,1,0
1582118307492,2664959,0,1,0
1582118307591,2665397,0,1,0
1582118307691,2665911,0,1,0
1582118307792,2666446,0,1,0
1582118307892,2666934,0,1,0
1582118307991,2667127,0,1,0
1582118308094,2667344,0,1,0
1582118308192,2667930,0,1,0
1582118308293,2668382,0,1,0
1582118308393,2668951,0,1,0
1582118308493,2669594,0,1,0
1582118308592,2670165,0,1,0
1582118308693,2670585,0,1,0
1582118308792,2670697,0,1,0
1582118308892,2671008,0,1,0
1582118308992,2671100,0,1,0
1582118309092,2671576,0,1,0
1582118309192,2671863,0,1,0
1582118309293,2671971,0,1,0
1582118309392,2672194,0,1,0
1582118309493,2672263,0,1,0
1582118309593,2672276,0,1,0
1582118309693,2672366,0,1,0
1582118309792,2672365,0,1,0
1582118309893,2672384,0,1,0
1582118309992,2672557,0,1,0
1582118310093,2672776,0,1,0
1582118310193,2672702,0,1,0
1582118310293,2672682,0,1,0
1582118310392,2672889,0,1,0
1582118310494,2672890,0,1,0
1582118310593,2673068,0,1,0
1582118310694,2673341,0,1,0
1582118310793,2673446,0,1,0
1582118310894,2673753,0,1,0
1582118310994,2674032,0,1,0
1582118311094,2674284,0,1,0
1582118311193,2674457,0,1,0
1582118311294,2674644,0,1,0
1582118311394,2675171,0,1,0
1582118311494,2675677,0,1,0
1582118311593,2675928,0,1,0
1582118311694,2676337,0,1,0
1582118311794,2676448,0,1,0
1582118311894,2676403,0,1,0
1582118311994,2675966,0,1,0
1582118312094,2675869,0,1,0
1582118312194,2676122,0,1,0
1582118312295,2676265,0,1,0
1582118312394,2676603,0,1,0
1582118312495,2677004,0,1,0
1582118312595,2676773,0,1,0
1582118312695,2676579,0,1,0
1582118312794,2676444,0,1,0
1582118312895,2676220,0,1,0
1582118312994,2675962,0,1,0
1582118313095,2675641,0,1,0
1582118313195,2675651,0,1,0
1582118313295,2675246,0,1,0
1582118313395,2674333,0,1,0
1582118313499,2673546,0,1,0
1582118313595,2672805,0,1,0
1582118313695,2671994,0,1,0
1582118313797,2671182,0,1,0
1582118313896,2670865,0,1,0
1582118313995,2670706,0,1,0
1582118314096,2669993,0,1,0
1582118314195,2669466,0,1,0
1582118314296,2668944,0,1,0
1582118314396,2668442,0,1,0
1582118314496,2667867,0,1,0
1582118314596,2667424,0,1,0
1582118314697,2667670,0,1,0
1582118314796,2667876,0,1,0
1582118314896,2667112,0,1,0
1582118314996,2666540,0,1,0
1582118315096,2665702,0,1,0
1582118315196,2664966,0,1,0
1582118315297,2664536,0,1,0
1582118315396,2664404,0,1,0
1582118315500,2664281,0,1,0
1582118315597,2663563,0,1,0
1582118315697,2662532,0,1,0
1582118315798,2661540,0,1,0
1582118315898,2660981,0,1,0
1582118315997,2660117,0,1,0
1582118316097,2659525,0,1,0
1582118316197,2659331,0,1,0
1582118316308,2658863,0,1,0
1582118316397,2657432,0,1,0
1582118316498,2655962,0,1,0
1582118316598,2654834,0,1,0
1582118316698,2653940,0,1,0
1582118316797,2653222,0,1,0
1582118316898,2652741,0,1,0
1582118316997,2652402,0,1,0
1582118317098,2651531,0,1,0
1582118317197,2650052,0,1,0
1582118317298,2648675,0,1,0
1582118317398,2647789,0,1,0
1582118317498,2646998,0,1,0
1582118317598,2646615,0,1,0
1582118317699,2646881,0,1,0
1582118317798,2646886,0,1,0
1582118317898,2645983,0,1,0
1582118317998,2645374,0,1,0
1582118318098,2645001,0,1,0
1582118318198,2644904,0,1,0
1582118318299,2645038,0,1,0
1582118318398,2645487,0,1,0
1582118318499,2645934,0,1,0
1582118318599,2645597,0,1,0
1582118318699,2645083,0,1,0
1582118318798,2644892,0,1,0
1582118318899,2644829,0,1,0
1582118318999,2645000,0,1,0
1582118319099,2645233,0,1,0
1582118319199,2645765,0,1,0
1582118319299,2645979,0,1,0
1582118319399,2645158,0,1,0
1582118319500,2644558,0,1,0
1582118319599,2644356,0,1,0
1582118319699,2644311,0,1,0
1582118319799,2644439,0,1,0
1582118319900,2644635,0,1,0
1582118319999,2644887,0,1,0
1582118320100,2644520,0,1,0
1582118320199,2643819,0,1,0
1582118320300,2643359,0,1,0
1582118320400,2643004,0,1,0
1582118320500,2642940,0,1,0
1582118320599,2643301,0,1,0
1582118320700,2643836,0,1,0
1582118320799,2644420,0,1,0
1582118320900,2644180,0,1,0
1582118321000,2644259,0,1,0
1582118321100,2644849,0,1,0
1582118321200,2645191,0,1,0
1582118321302,2646039,0,1,0
1582118321400,2646960,0,1,0
1582118321501,2647782,0,1,0
1582118321601,2648083,0,1,0
1582118321701,2648100,0,1,0
1582118321800,2648632,0,1,0
1582118321901,2649117,0,1,0
1582118322000,2649716,0,1,0
1582118322101,2650536,0,1,0
1582118322201,2651650,0,1,0
1582118322301,2652220,0,1,0
1582118322401,2652418,0,1,0
1582118322502,2652145,0,1,0
1582118322601,2652429,0,1,0
1582118322701,2652772,0,1,0
1582118322801,2653010,0,1,0
1582118322901,2653384,0,1,0
1582118323001,2653944,0,1,0
1582118323102,2653825,0,1,0
1582118323201,2653370,0,1,0
1582118323302,2652993,0,1,0
1582118323402,2652799,0,1,0
1582118323502,2652796,0,1,0
1582118323602,2653155,0,1,0
1582118323702,2653323,0,1,0
1582118323802,2653923,0,1,0
1582118323902,2654180,0,1,0
1582118324003,2654193,0,1,0
1582118324102,2654216,0,1,0
1582118324202,2654608,0,1,0
1582118324303,2654810,0,1,0
1582118324402,2655655,0,1,0
1582118324503,2656386,0,1,0
1582118324603,2656882,0,1,0
1582118324703,2657100,0,1,0
1582118324802,2657130,0,1,0
1582118324903,2657267,0,1,0
1582118325002,2657651,0,1,0
1582118325103,2658023,0,1,0
1582118325203,2658445,0,1,0
1582118325303,2658990,0,1,0
1582118325403,2659200,0,1,0
1582118325504,2658845,0,1,0
1582118325603,2658444,0,1,0
1582118325703,2658144,0,1,0
1582118325803,2657775,0,1,0
1582118325904,2657815,0,1,0
1582118326003,2657824,0,1,0
1582118326104,2658144,0,1,0
1582118326203,2657857,0,1,0
1582118326304,2656976,0,1,0
1582118326404,2656203,0,1,0
1582118326504,2655679,0,1,0
1582118326604,2655399,0,1,0
1582118326704,2655112,0,1,0
1582118326803,2654975,0,1,0
1582118326904,2655256,0,1,0
1582118327004,2655046,0,1,0
1582118327104,2654503,0,1,0
1582118327204,2654170,0,1,0
1582118327305,2654312,0,1,0
1582118327404,2654443,0,1,0
1582118327505,2654681,0,1,0
1582118327605,2655084,0,1,0
1582118327705,2655551,0,1,0
1582118327804,2655483,0,1,0
1582118327905,2654952,0,1,0
1582118328004,2654807,0,1,0
1582118328105,2655010,0,1,0
1582118328205,2655133,0,1,0
1582118328305,2655506,0,1,0
1582118328405,2656164,0,1,0
1582118328506,2656405,0,1,0
1582118328605,2656009,0,1,0
1582118328705,2655712,0,1,0
1582118328805,2655594,0,1,0
1582118328906,2655890,0,1,0
1582118329005,2656113,0,1,0
1582118329106,2656200,0,1,0
1582118329205,2656663,0,1,0
1582118329306,2656133,0,1,0
1582118329406,2655553,0,1,0
1582118329509,2655412,0,1,0
1582118329606,2655317,0,1,0
1582118329707,2655172,0,1,0
1582118329807,2655583,0,1,0
1582118329906,2655939,0,1,0
1582118330006,2655754,0,1,0
1582118330106,2655209,0,1,0
1582118330206,2655277,0,1,0
1582118330307,2655172,0,1,0
1582118330406,2655485,0,1,0
1582118330507,2655930,0,1,0
1582118330607,2656619,0,1,0
1582118330707,2657142,0,1,0
1582118330806,2656935,0,1,0
1582118330908,2656584,0,1,0
1582118331007,2656848,0,1,0
1582118331107,2657037,0,1,0
1582118331207,2657306,0,1,0
1582118331307,2657732,0,1,0
1582118331407,2658270,0,1,0
1582118331508,2657922,0,1,0
1582118331608,2657694,0,1,0
1582118331707,2657531,0,1,0
1582118331808,2657542,0,1,0
1582118331908,2657523,0,1,0
1582118332007,2657810,0,1,0
1582118332108,2657560,0,1,0
1582118332207,2656872,0,1,0
1582118332308,2656291,0,1,0
1582118332408,2656140,0,1,0
1582118332508,2655970,0,1,0
1582118332608,2656030,0,1,0
1582118332708,2656292,0,1,0
1582118332808,2655780,0,1,0
1582118332908,2655172,0,1,0
1582118333008,2654766,0,1,0
1582118333108,2654344,0,1,0
1582118333208,2654504,0,1,0
1582118333309,2654737,0,1,0
1582118333408,2654853,0,1,0
1582118333509,2654170,0,1,0
1582118333609,2653237,0,1,0
1582118333709,2652275,0,1,0
1582118333808,2651749,0,1,0
1582118333909,2651396,0,1,0
1582118334009,2651212,0,1,0
1582118334109,2651296,0,1,0
1582118334209,2651240,0,1,0
1582118334309,2650634,0,1,0
1582118334408,2649465,0,1,0
1582118334510,2648642,0,1,0
1582118334609,2648063,0,1,0
1582118334709,2647855,0,1,0
1582118334809,2648043,0,1,0
1582118334909,2648482,0,1,0
1582118335009,2648840,0,1,0
1582118335110,2648462,0,1,0
1582118335209,2647576,0,1,0
1582118335310,2647389,0,1,0
1582118335410,2647255,0,1,0
1582118335510,2647305,0,1,0
1582118335610,2647885,0,1,0
1582118335710,2648453,0,1,0
1582118335810,2648521,0,1,0
1582118335911,2648281,0,1,0
1582118336010,2648181,0,1,0
1582118336110,2648411,0,1,0
1582118336210,2648908,0,1,0
1582118336311,2649506,0,1,0
1582118336410,2650306,0,1,0
1582118336511,2650585,0,1,0
1582118336611,2650771,0,1,0
1582118336711,2651107,0,1,0
1582118336810,2651560,0,1,0
1582118336911,2651954,0,1,0
1582118337011,2652611,0,1,0
1582118337111,2653098,0,1,0
1582118337211,2653951,0,1,0
1582118337311,2654354,0,1,0
1582118337411,2655000,0,1,0
1582118337512,2655470,0,1,0
1582118337611,2655926,0,1,0
1582118337711,2656813,0,1,0
1582118337812,2657839,0,1,0
1582118337913,2658941,0,1,0
1582118338012,2660458,0,1,0
1582118338113,2661705,0,1,0
1582118338212,2662622,0,1,0
1582118338313,2663800,0,1,0
1582118338412,2665034,0,1,0
1582118338512,2666137,0,1,0
1582118338612,2667308,0,1,0
1582118338713,2668119,0,1,0
1582118338812,2669093,0,1,0
1582118338912,2670224,0,1,0
1582118339012,2671138,0,1,0
1582118339112,2672050,0,1,0
1582118339212,2673034,0,1,0
1582118339313,2673830,0,1,0
1582118339412,2674480,0,1,0
1582118339513,2675360,0,1,0
1582118339613,2676050,0,1,0
1582118339713,2676878,0,1,0
1582118339812,2677515,0,1,0
1582118339913,2678243,0,1,0
1582118340012,2678732,0,1,0
1582118340113,2679208,0,1,0
1582118340213,2679613,0,1,0
1582118340313,2680024,0,1,0
1582118340413,2680461,0,1,0
1582118340514,2680865,0,1,0
1582118340613,2681300,0,1,0
1582118340713,2681474,0,1,0
1582118340813,2681810,0,1,0
1582118340914,2681581,0,1,0
1582118341013,2681539,0,1,0
1582118341114,2681633,0,1,0
1582118341213,2681675,0,1,0
1582118341314,2681838,0,1,0
1582118341414,2681874,0,1,0
1582118341514,2681946,0,1,0
1582118341614,2681919,0,1,0
1582118341714,2682043,0,1,0
1582118341814,2681869,0,1,0
1582118341915,2681679,0,1,0
1582118342014,2681620,0,1,0
1582118342114,2681746,0,1,0
1582118342214,2682013,0,1,0
1582118342315,2682176,0,1,0
1582118342414,2682218,0,1,0
1582118342514,2682373,0,1,0
1582118342615,2682543,0,1,0
1582118342715,2682671,0,1,0
1582118342814,2683029,0,1,0
1582118342915,2683284,0,1,0
1582118343014,2683613,0,1,0
1582118343115,2683681,0,1,0
1582118343216,2683681,0,1,0
1582118343315,2683739,0,1,0
1582118343415,2683546,0,1,0
1582118343519,2683663,0,1,0
1582118343615,2683863,0,1,0
1582118343715,2684046,0,1,0
1582118343818,2683872,0,1,0
1582118343916,2683311,0,1,0
1582118344015,2682900,0,1,0
1582118344116,2682340,0,1,0
1582118344215,2681717,0,1,0
1582118344316,2681259,0,1,0
1582118344416,2680737,0,1,0
1582118344517,2680199,0,1,0
1582118344616,2679120,0,1,0
1582118344717,2677872,0,1,0
1582118344816,2676621,0,1,0
1582118344916,2675563,0,1,0
1582118345016,2674258,0,1,0
1582118345116,2673443,0,1,0
1582118345216,2672858,0,1,0
1582118345317,2671627,0,1,0
1582118345416,2669718,0,1,0
1582118345520,2667784,0,1,0
1582118345617,2666140,0,1,0
1582118345717,2664705,0,1,0
1582118345818,2663392,0,1,0
1582118345918,2662504,0,1,0
1582118346017,2661643,0,1,0
1582118346117,2660082,0,1,0
1582118346217,2658237,0,1,0
1582118346327,2656664,0,1,0
1582118346417,2655224,0,1,0
1582118346518,2654106,0,1,0
1582118346617,2653429,0,1,0
1582118346717,2652886,0,1,0
1582118346817,2651444,0,1,0
1582118346918,2649906,0,1,0
1582118347017,2648696,0,1,0
1582118347118,2647655,0,1,0
1582118347225,2647037,0,1,0
1582118347318,2646663,0,1,0
1582118347418,2646335,0,1,0
1582118347518,2644965,0,1,0
1582118347618,2643449,0,1,0
1582118347718,2642306,0,1,0
1582118347818,2641387,0,1,0
1582118347918,2640750,0,1,0
1582118348018,2640861,0,1,0
1582118348118,2640583,0,1,0
1582118348218,2639078,0,1,0
1582118348319,2637637,0,1,0
1582118348418,2636826,0,1,0
1582118348519,2636035,0,1,0
1582118348619,2635944,0,1,0
1582118348719,2636070,0,1,0
1582118348818,2635920,0,1,0
1582118348919,2634653,0,1,0
1582118349019,2633796,0,1,0
1582118349120,2633336,0,1,0
1582118349220,2633108,0,1,0
1582118349320,2633271,0,1,0
1582118349419,2633853,0,1,0
1582118349521,2634131,0,1,0
1582118349620,2633647,0,1,0
1582118349720,2633583,0,1,0
1582118349820,2633704,0,1,0
1582118349920,2634210,0,1,0
1582118350020,2635082,0,1,0
1582118350121,2635656,0,1,0
1582118350221,2635872,0,1,0
1582118350321,2635549,0,1,0
1582118350421,2635702,0,1,0
1582118350521,2636408,0,1,0
1582118350621,2637079,0,1,0
1582118350722,2637996,0,1,0
1582118350821,2638451,0,1,0
1582118350922,2638419,0,1,0
1582118351022,2638407,0,1,0
1582118351121,2638479,0,1,0
1582118351221,2638603,0,1,0
1582118351322,2638799,0,1,0
1582118351421,2639172,0,1,0
1582118351522,2639639,0,1,0
1582118351622,2639765,0,1,0
1582118351722,2640594,0,1,0
1582118351822,2641327,0,1,0
1582118351923,2642524,0,1,0
1582118352022,2643833,0,1,0
1582118352122,2645111,0,1,0
1582118352222,2645924,0,1,0
1582118352323,2646577,0,1,0
1582118352422,2647918,0,1,0
1582118352523,2649521,0,1,0
1582118352623,2651155,0,1,0
1582118352723,2652981,0,1,0
1582118352823,2654328,0,1,0
1582118352923,2655076,0,1,0
1582118353022,2656040,0,1,0
1582118353123,2657209,0,1,0
1582118353223,2658068,0,1,0
1582118353323,2658976,0,1,0
1582118353423,2659987,0,1,0
1582118353524,2660494,0,1,0
1582118353623,2660705,0,1,0
1582118353724,2661228,0,1,0
1582118353823,2661794,0,1,0
1582118353924,2662514,0,1,0
1582118354024,2663236,0,1,0
1582118354123,2664058,0,1,0
1582118354223,2664261,0,1,0
1582118354324,2664315,0,1,0
1582118354423,2664450,0,1,0
1582118354524,2664798,0,1,0
1582118354624,2665153,0,1,0
1582118354724,2665518,0,1,0
1582118354824,2666027,0,1,0
1582118354925,2666292,0,1,0
1582118355024,2666381,0,1,0
1582118355124,2666774,0,1,0
1582118355224,2667277,0,1,0
1582118355325,2667655,0,1,0
1582118355424,2668314,0,1,0
1582118355527,2669172,0,1,0
1582118355625,2669505,0,1,0
1582118355725,2669923,0,1,0
1582118355826,2670466,0,1,0
1582118355928,2671145,0,1,0
1582118356025,2672212,0,1,0
1582118356125,2672913,0,1,0
1582118356225,2673833,0,1,0
1582118356325,2674473,0,1,0
1582118356425,2675089,0,1,0
1582118356525,2675488,0,1,0
1582118356625,2675992,0,1,0
1582118356726,2676733,0,1,0
1582118356825,2677204,0,1,0
1582118356924,2677920,0,1,0
1582118357024,2678356,0,1,0
1582118357124,2678375,0,1,0
1582118357224,2678767,0,1,0
1582118357325,2678929,0,1,0
1582118357424,2679199,0,1,0
1582118357525,2679646,0,1,0
1582118357625,2680131,0,1,0
1582118357725,2680273,0,1,0
1582118357824,2680429,0,1,0
1582118357926,2680436,0,1,0
1582118358024,2680692,0,1,0
1582118358125,2680829,0,1,0
1582118358225,2681167,0,1,0
1582118358325,2681606,0,1,0
1582118358425,2681992,0,1,0
1582118358526,2681852,0,1,0
1582118358625,2681973,0,1,0
1582118358725,2682173,0,1,0
1582118358825,2682411,0,1,0
1582118358926,2682811,0,1,0
1582118359025,2683434,0,1,0
1582118359126,2684063,0,1,0
1582118359225,2684154,0,1,0
1582118359326,2684584,0,1,0
1582118359426,2685128,0,1,0
1582118359529,2685799,0,1,0
1582118359626,2686627,0,1,0
1582118359727,2687351,0,1,0
1582118359827,2687977,0,1,0
1582118359926,2688517,0,1,0
1582118360026,2688930,0,1,0
1582118360126,2689405,0,1,0
1582118360229,2689936,0,1,0
1582118360327,2690678,0,1,0
1582118360426,2691357,0,1,0
1582118360527,2692105,0,1,0
1582118360628,2692298,0,1,0
1582118360727,2692646,0,1,0
1582118360826,2692944,0,1,0
1582118360928,2693329,0,1,0
1582118361027,2693753,0,1,0
1582118361127,2694219,0,1,0
1582118361227,2694566,0,1,0
1582118361327,2694881,0,1,0
1582118361427,2695110,0,1,0
1582118361528,2695293,0,1,0
1582118361627,2695590,0,1,0
1582118361727,2695740,0,1,0
1582118361828,2696173,0,1,0
1582118361928,2696631,0,1,0
1582118362027,2696811,0,1,0
1582118362128,2696922,0,1,0
1582118362228,2697086,0,1,0
1582118362328,2697280,0,1,0
1582118362428,2697589,0,1,0
1582118362528,2697934,0,1,0
1582118362628,2698504,0,1,0
1582118362728,2698994,0,1,0
1582118362828,2699327,0,1,0
1582118362928,2699641,0,1,0
1582118363028,2700054,0,1,0
1582118363128,2700525,0,1,0
1582118363228,2700849,0,1,0
1582118363330,2701032,0,1,0
1582118363428,2701562,0,1,0
1582118363529,2701802,0,1,0
1582118363629,2701884,0,1,0
1582118363729,2702169,0,1,0
1582118363828,2702382,0,1,0
1582118363929,2702661,0,1,0
1582118364029,2702844,0,1,0
1582118364129,2703195,0,1,0
1582118364229,2703523,0,1,0
1582118364329,2703530,0,1,0
1582118364429,2703647,0,1,0
1582118364530,2703607,0,1,0
1582118364629,2703691,0,1,0
1582118364729,2703751,0,1,0
1582118364829,2703906,0,1,0
1582118364930,2704096,0,1,0
1582118365029,2704065,0,1,0
1582118365130,2703737,0,1,0
1582118365229,2703382,0,1,0
1582118365330,2702996,0,1,0
1582118365430,2702729,0,1,0
1582118365530,2702823,0,1,0
1582118365630,2702856,0,1,0
1582118365731,2702937,0,1,0
1582118365830,2702663,0,1,0
1582118365931,2702058,0,1,0
1582118366030,2701927,0,1,0
1582118366130,2701704,0,1,0
1582118366230,2701587,0,1,0
1582118366331,2701710,0,1,0
1582118366430,2701980,0,1,0
1582118366531,2701889,0,1,0
1582118366631,2701401,0,1,0
1582118366731,2701103,0,1,0
1582118366830,2701003,0,1,0
1582118366931,2700905,0,1,0
1582118367031,2700921,0,1,0
1582118367131,2701164,0,1,0
1582118367231,2701163,0,1,0
1582118367331,2700865,0,1,0
1582118367431,2700307,0,1,0
1582118367533,2699781,0,1,0
1582118367633,2699261,0,1,0
1582118367732,2698767,0,1,0
1582118367833,2698689,0,1,0
1582118367933,2698789,0,1,0
1582118368032,2698304,0,1,0
1582118368133,2697314,0,1,0
1582118368232,2696330,0,1,0
1582118368332,2695662,0,1,0
1582118368432,2695074,0,1,0
1582118368532,2694668,0,1,0
1582118368632,2694273,0,1,0
1582118368732,2693870,0,1,0
1582118368832,2692940,0,1,0
1582118368932,2692181,0,1,0
1582118369032,2691417,0,1,0
1582118369132,2690745,0,1,0
1582118369232,2690129,0,1,0
1582118369333,2690173,0,1,0
1582118369432,2690334,0,1,0
1582118369533,2690183,0,1,0
1582118369633,2689354,0,1,0
1582118369733,2688770,0,1,0
1582118369832,2688635,0,1,0
1582118369934,2688245,0,1,0
1582118370032,2688434,0,0,0
1582118370133,2688587,0,0,0
1582118370233,2688862,0,0,0
1582118370333,2688490,0,0,0
1582118370433,2687753,0,0,0
1582118370534,2687365,0,0,0
1582118370633,2686902,0,0,0
1582118370733,2686535,0,0,0
1582118370833,2686398,0,0,0
1582118370934,2686421,0,0,0
1582118371033,2686243,0,0,0
1582118371134,2685106,0,0,0
1582118371233,2684226,0,0,0
1582118371334,2683398,0,0,0
1582118371434,2682607,0,0,0
1582118371534,2682135,0,0,0
1582118371634,2682162,0,0,0
1582118371734,2682198,0,0,0
1582118371834,2681518,0,0,0
1582118371935,2680439,0,0,0
1582118372034,2679520,0,0,0
1582118372134,2678568,0,0,0
1582118372234,2678067,0,0,0
1582118372335,2677592,0,0,0
1582118372434,2677390,0,0,0
1582118372534,2677292,0,0,0
1582118372635,2676524,0,0,0
1582118372735,2676098,0,0,0
1582118372834,2675815,0,0,0
1582118372935,2675925,0,0,0
1582118373034,2676315,0,0,0
1582118373135,2676812,0,0,0
1582118373235,2677285,0,0,0
1582118373336,2676982,0,0,0
1582118373435,2676575,0,0,0
1582118373539,2676465,0,0,0
1582118373635,2676272,0,0,0
1582118373737,2676303,0,0,0
1582118373837,2676440,0,0,0
1582118373936,2676611,0,0,0
1582118374035,2676142,0,0,0
1582118374136,2675275,0,0,0
1582118374235,2674680,0,0,0
1582118374336,2674294,0,0,0
1582118374436,2674038,0,0,0
1582118374536,2674061,0,0,0
1582118374635,2674310,0,0,0
1582118374737,2674379,0,0,0
1582118374836,2673939,0,0,0
1582118374936,2673565,0,0,0
1582118375036,2673337,0,0,0
1582118375137,2673140,0,0,0
1582118375239,2673345,0,0,0
1582118375337,2673614,0,0,0
1582118375436,2674156,0,0,0
1582118375539,2674684,0,0,0
1582118375637,2674643,0,0,0
1582118375737,2674889,0,0,0
1582118375838,2675298,0,0,0
1582118375938,2675727,0,0,0
1582118376037,2676383,0,0,0
1582118376137,2677165,0,0,0
1582118376237,2677705,0,0,0
1582118376338,2677939,0,0,0
1582118376437,2677926,0,0,0
1582118376538,2677964,0,0,0
1582118376638,2678123,0,0,0
1582118376738,2678362,0,0,0
1582118376838,2678892,0,0,0
1582118376939,2679284,0,0,0
1582118377038,2678951,0,0,0
1582118377139,2678425,0,0,0
1582118377238,2678029,0,0,0
1582118377339,2677840,0,0,0
1582118377439,2677666,0,0,0
1582118377540,2677848,0,0,0
1582118377638,2678082,0,0,0
1582118377740,2678318,0,0,0
1582118377839,2678166,0,0,0
1582118377940,2677860,0,0,0
1582118378040,2678043,0,0,0
1582118378140,2678110,0,0,0
1582118378239,2678418,0,0,0
1582118378340,2678884,0,0,0
1582118378440,2679521,0,0,0
1582118378540,2679550,0,0,0
1582118378640,2679557,0,0,0
1582118378740,2679825,0,0,0
1582118378840,2679947,0,0,0
1582118378941,2680421,0,0,0
1582118379040,2680914,0,0,0
1582118379140,2681710,0,0,0
1582118379240,2681856,0,0,0
1582118379341,2681678,0,0,0
1582118379440,2681594,0,0,0
1582118379541,2681485,0,0,0
1582118379640,2681431,0,0,0
1582118379741,2681692,0,0,0
1582118379841,2681918,0,0,0
1582118379941,2681897,0,0,0
1582118380041,2681007,0,0,0
1582118380142,2680290,0,0,0
1582118380241,2679875,0,0,0
1582118380341,2679036,0,0,0
1582118380442,2678095,0,0,0
1582118380542,2676835,0,0,0
1582118380640,2677099,0,0,0
1582118380742,2677713,0,0,0
1582118380841,2680017,0,0,0
1582118380942,2680529,0,0,0
1582118381042,2685249,0,0,0
1582118381141,2686930,0,0,0
1582118381241,2688675,0,0,0
1582118381342,2689570,0,0,0
1582118381441,2689360,0,0,0
1582118381542,2689480,0,0,0
1582118381643,2690694,0,0,0
1582118381742,2690464,0,0,0
1582118381842,2691066,0,0,0
1582118381943,2690423,0,0,0
1582118382042,2688618,0,0,0
1582118382142,2686939,0,0,0
1582118382242,2686050,0,0,0
1582118382342,2687210,0,0,0
1582118382443,2687852,0,0,0
1582118382543,2687971,0,0,0
1582118382642,2688307,0,0,0
1582118382742,2688024,0,0,0
1582118382843,2688072,0,0,0
1582118382944,2688183,0,0,0
1582118383043,2688393,0,0,0
1582118383143,2686702,0,0,0
1582118383243,2685318,0,0,0
1582118383344,2686906,0,0,0
1582118383444,2687726,0,0,0
1582118383543,2688823,0,0,0
1582118383643,2688875,0,0,0
1582118383744,2688690,0,0,0
1582118383843,2689796,0,0,0
1582118383944,2692616,0,0,0
1582118384044,2697005,0,0,0
1582118384143,2702804,0,0,0
1582118384243,2705213,0,0,0
1582118384344,2710077,0,0,0
1582118384444,2715054,0,0,0
1582118384544,2721436,0,0,0
1582118384643,2718690,0,0,0
1582118384744,2705599,0,0,0
1582118384844,2715407,0,0,0
1582118384945,2740998,0,0,0
1582118385044,2748618,0,0,0
1582118385144,2747408,0,0,0
1582118385306,2749939,0,0,0
1582118385365,2746988,0,0,0
1582118385488,2747128,0,0,0
1582118385575,2748235,0,0,0
1582118385643,2749658,0,0,0
1582118385744,2750439,0,0,0
1582118385844,2751018,0,0,0
1582118385946,2752070,0,0,0
1582118386045,2752874,0,0,0
1582118386146,2753729,0,0,0
1582118386247,2754746,0,0,0
1582118386346,2755808,0,0,0
1582118386445,2757145,0,0,0
1582118386545,2757935,0,0,0
1582118386646,2758801,0,0,0
1582118386746,2759749,0,0,0
1582118386846,2760402,0,0,0
1582118386946,2760996,0,0,0
1582118387046,2761917,0,0,0
1582118387147,2762528,0,0,0
1582118387246,2763102,0,0,0
1582118387347,2763206,0,0,0
1582118387446,2763469,0,0,0
1582118387560,2763437,0,0,0
1582118387646,2763743,0,0,0
1582118387747,2763786,0,0,0
1582118387848,2763913,0,0,0
1582118387948,2764094,0,0,0
1582118388048,2764143,0,0,0
1582118388147,2764031,0,0,0
1582118388248,2764301,0,0,0
1582118388348,2764654,0,0,0
1582118388447,2764897,0,0,0
1582118388558,2765444,0,0,0
1582118388646,2765908,0,0,0
1582118388747,2766511,0,0,0
1582118388847,2766672,0,0,0
1582118388947,2766687,0,0,0
1582118389047,2767045,0,0,0
1582118389148,2766810,0,0,0
1582118389247,2766852,0,0,0
1582118389347,2766935,0,0,0
1582118389448,2767059,0,0,0
1582118389562,2767200,0,0,0
1582118389647,2767162,0,0,0
1582118389748,2767321,0,0,0
1582118389848,2767412,0,0,0
1582118389948,2767539,0,0,0
1582118390049,2767500,0,0,0
1582118390157,2767497,0,0,0
1582118390260,2767244,0,0,0
1582118390349,2767240,0,0,0
1582118390449,2767106,0,0,0
1582118390550,2767021,0,0,0
1582118390648,2766838,0,0,0
1582118390748,2766794,0,0,0
1582118390848,2766592,0,0,0
1582118390949,2767539,0,0,0
1582118391048,2768025,0,0,0
1582118391148,2767285,0,0,0
1582118391249,2767149,0,0,0
1582118391348,2767255,0,0,0
1582118391448,2766880,0,0,0
1582118391549,2766618,0,0,0
1582118391648,2766519,0,0,0
1582118391749,2766575,0,0,0
1582118391849,2766666,0,0,0
1582118391949,2766825,0,0,0
1582118392049,2767264,0,0,0
1582118392150,2767401,0,0,0
1582118392249,2767203,0,0,0
1582118392349,2767088,0,0,0
1582118392449,2767313,0,0,0
1582118392550,2767425,0,0,0
1582118392648,2767508,0,0,0
1582118392750,2767696,0,0,0
1582118392849,2767454,0,0,0
1582118392950,2766986,0,0,0
1582118393050,2766957,0,0,0
1582118393150,2766811,0,0,0
1582118393249,2766462,0,0,0
1582118393351,2766409,0,0,0
1582118393449,2766190,0,0,0
1582118393550,2765708,0,0,0
1582118393650,2765432,0,0,0
1582118393750,2765215,0,0,0
1582118393850,2765028,0,0,0
1582118393951,2764936,0,0,0
1582118394050,2764961,0,0,0
1582118394149,2764777,0,0,0
1582118394249,2764319,0,0,0
1582118394350,2763779,0,0,0
1582118394449,2763496,0,0,0
1582118394550,2763019,0,0,0
1582118394649,2762689,0,0,0
1582118394749,2762158,0,0,0
1582118394850,2761472,0,0,0
1582118394950,2760760,0,0,0
1582118395049,2759987,0,0,0
1582118395151,2759451,0,0,0
1582118395249,2758803,0,0,0
1582118395350,2758541,0,0,0
1582118395450,2758331,0,0,0
1582118395550,2757533,0,0,0
1582118395650,2757092,0,0,0
1582118395751,2756290,0,0,0
1582118395850,2755845,0,0,0
1582118395951,2755620,0,0,0
1582118396051,2755395,0,0,0
1582118396151,2755088,0,0,0
1582118396250,2754306,0,0,0
1582118396351,2753626,0,0,0
1582118396450,2752998,0,0,0
1582118396658,2752556,0,0,0
1582118396659,2752258,0,0,0
1582118396753,2751932,0,0,0
1582118396852,2751535,0,0,0
1582118396953,2750986,0,0,0
1582118397052,2750738,0,0,0
1582118397153,2750526,0,0,0
1582118397253,2750584,0,0,0
1582118397353,2750709,0,0,0
1582118397452,2750703,0,0,0
1582118397554,2750949,0,0,0
1582118397651,2751259,0,0,0
1582118397751,2751557,0,0,0
1582118397853,2751777,0,0,0
1582118397953,2752414,0,0,0
1582118398052,2752957,0,0,0
1582118398153,2753055,0,0,0
1582118398252,2753176,0,0,0
1582118398352,2753219,0,0,0
1582118398453,2753326,0,0,0
1582118398553,2753438,0,0,0
1582118398652,2753661,0,0,0
1582118398753,2753535,0,0,0
1582118398852,2753498,0,0,0
1582118398952,2753448,0,0,0
1582118399052,2753452,0,0,0
1582118399152,2753520,0,0,0
1582118399252,2753586,0,0,0
1582118399353,2753413,0,0,0
1582118399452,2753136,0,0,0
1582118399553,2753058,0,0,0
1582118399654,2753087,0,0,0
1582118399753,2753093,0,0,0
1582118399852,2753174,0,0,0
1582118399954,2752977,0,0,0
1582118400052,2752910,0,0,0
1582118400153,2752790,0,0,0
1582118400253,2752243,0,0,0
1582118400353,2751480,0,0,0
1582118400453,2749999,0,0,0
1582118400554,2748492,0,0,0
1582118400654,2748124,0,0,0
1582118400754,2747107,0,0,0
1582118400854,2745831,0,0,0
1582118400954,2744985,0,0,0
1582118401054,2743561,0,0,0
1582118401155,2742734,0,0,0
1582118401254,2742122,0,0,0
1582118401355,2741339,0,0,0
1582118401455,2741067,0,0,0
1582118401557,2740457,0,0,0
1582118401656,2739391,0,0,0
1582118401757,2738623,0,0,0
1582118401856,2738354,0,0,0
1582118401956,2737976,0,0,0
1582118402056,2737957,0,0,0
1582118402156,2737769,0,0,0
1582118402255,2737125,0,0,0
1582118402356,2736080,0,0,0
1582118402455,2735077,0,0,0
1582118402556,2734011,0,0,0
1582118402656,2733042,0,0,0
1582118402756,2731508,0,0,0
1582118402856,2731110,0,0,0
1582118402957,2730825,0,0,0
1582118403056,2730128,0,0,0
1582118403156,2729354,0,0,0
1582118403257,2727984,0,0,0
1582118403357,2726893,0,0,0
1582118403456,2725445,0,0,0
1582118403560,2724406,0,0,0
1582118403656,2723684,0,0,0
1582118403757,2723389,0,0,0
1582118403857,2722742,0,0,0
1582118403957,2721536,0,0,0
1582118404056,2720297,0,0,0
1582118404157,2719494,0,0,0
1582118404257,2719025,0,0,0
1582118404357,2718707,0,0,0
1582118404457,2717750,0,0,0
1582118404557,2716251,0,0,0
1582118404657,2715339,0,0,0
1582118404758,2714603,0,0,0
1582118404857,2713631,0,0,0
1582118404957,2713562,0,0,0
1582118405058,2713466,0,0,0
1582118405158,2713173,0,0,0
1582118405257,2712507,0,0,0
1582118405358,2711430,0,0,0
1582118405457,2710658,0,0,0
1582118405558,2710327,0,0,0
1582118405658,2710409,0,0,0
1582118405758,2710325,0,0,0
1582118405858,2710417,0,0,0
1582118405959,2710256,0,0,0
1582118406058,2710337,0,0,0
1582118406158,2710855,0,0,0
1582118406258,2711519,0,0,0
1582118406359,2711895,0,0,0
1582118406458,2711578,0,0,0
1582118406559,2710719,0,0,0
1582118406658,2710540,0,0,0
1582118406759,2710466,0,0,0
1582118406859,2710433,0,0,0
1582118406959,2710632,0,0,0
1582118407058,2710490,0,0,0
1582118407159,2710572,0,0,0
1582118407259,2710540,0,0,0
1582118407359,2710081,0,0,0
1582118407459,2709517,0,0,0
1582118407560,2709409,0,0,0
1582118407659,2709308,0,0,0
1582118407760,2708895,0,0,0
1582118407859,2708418,0,0,0
1582118407960,2707568,0,0,0
1582118408060,2707149,0,0,0
1582118408160,2706720,0,0,0
1582118408259,2706632,0,0,0
1582118408360,2706590,0,0,0
1582118408459,2706409,0,0,0
1582118408560,2705993,0,0,0
1582118408660,2705442,0,0,0
1582118408760,2705609,0,0,0
1582118408860,2705878,0,0,0
1582118408961,2706389,0,0,0
1582118409060,2706838,0,0,0
1582118409160,2707210,0,0,0
1582118409260,2708109,0,0,0
1582118409360,2708822,0,0,0
1582118409460,2710110,0,0,0
1582118409562,2711532,0,0,0
1582118409661,2713110,0,0,0
1582118409761,2714349,0,0,0
1582118409861,2715561,0,0,0
1582118409961,2716575,0,0,0
1582118410060,2717601,0,2,0
1582118410161,2719339,0,2,0
1582118410261,2720652,0,2,0
1582118410361,2721608,0,2,0
1582118410461,2723527,0,2,0
1582118410561,2725379,0,2,0
1582118410661,2726507,0,2,0
1582118410762,2727235,0,2,0
1582118410861,2727892,0,2,0
1582118410961,2728529,0,2,0
1582118411062,2728310,0,2,0
1582118411161,2727804,0,2,0
1582118411262,2726991,0,2,0
1582118411362,2726780,0,2,0
1582118411462,2726237,0,2,0
1582118411562,2725713,0,2,0
1582118411662,2725022,0,2,0
1582118411762,2724181,0,2,0
1582118411862,2723443,0,2,0
1582118411963,2722809,0,2,0
1582118412062,2722384,0,2,0
1582118412162,2722404,0,2,0
1582118412263,2721768,0,2,0
1582118412362,2720846,0,2,0
1582118412462,2719886,0,2,0
1582118412562,2719357,0,2,0
1582118412662,2717297,0,2,0
1582118412762,2717483,0,2,0
1582118412862,2717790,0,2,0
1582118412962,2717589,0,2,0
1582118413062,2716314,0,2,0
1582118413163,2714694,0,2,0
1582118413262,2713694,0,2,0
1582118413362,2713787,0,2,0
1582118413463,2713882,0,2,0
1582118413563,2714317,0,2,0
1582118413664,2714528,0,2,0
1582118413764,2714504,0,2,0
1582118413864,2714722,0,2,0
1582118413964,2714066,0,2,0
1582118414064,2713485,0,2,0
1582118414164,2713128,0,2,0
1582118414264,2713226,0,2,0
1582118414364,2713090,0,2,0
1582118414464,2712562,0,2,0
1582118414564,2686654,0,2,0
1582118414665,2693683,0,2,0
1582118414764,2698443,0,2,0
1582118414864,2703306,0,2,0
1582118414964,2711526,0,2,0
1582118415064,2713873,0,2,0
1582118415164,2713709,0,2,0
1582118415265,2713909,0,2,0
1582118415364,2713992,0,2,0
1582118415464,2714081,0,2,0
1582118415568,2714137,0,2,0
1582118415665,2713679,0,2,0
1582118415764,2713192,0,2,0
1582118415866,2713257,0,2,0
1582118415966,2713248,0,2,0
1582118416065,2713032,0,2,0
1582118416165,2712931,0,2,0
1582118416265,2712680,0,2,0
1582118416365,2712767,0,2,0
1582118416466,2712978,0,2,0
1582118416565,2713035,0,2,0
1582118416665,2713182,0,2,0
1582118416766,2712821,0,2,0
1582118416865,2712673,0,2,0
1582118416966,2712599,0,2,0
1582118417066,2712367,0,2,0
1582118417166,2712257,0,2,0
1582118417266,2712171,0,2,0
1582118417366,2711951,0,2,0
1582118417466,2711532,0,2,0
1582118417569,2711040,0,2,0
1582118417666,2710789,0,2,0
1582118417766,2710602,0,2,0
1582118417870,2710285,0,2,0
1582118417967,2709684,0,2,0
1582118418066,2709056,0,2,0
1582118418166,2708366,0,2,0
1582118418267,2708047,0,2,0
1582118418366,2707687,0,2,0
1582118418466,2707476,0,2,0
1582118418567,2707173,0,2,0
1582118418667,2706725,0,2,0
1582118418767,2706320,0,2,0
1582118418867,2705943,0,2,0
1582118418967,2705843,0,2,0
1582118419067,2705958,0,2,0
1582118419167,2705622,0,2,0
1582118419267,2705412,0,2,0
1582118419367,2705093,0,2,0
1582118419468,2704959,0,2,0
1582118419568,2704953,0,2,0
1582118419668,2704858,0,2,0
1582118419768,2704673,0,2,0
1582118419873,2704632,0,2,0
1582118419967,2704138,0,2,0
1582118420068,2704037,0,2,0
1582118420167,2703815,0,2,0
1582118420267,2703643,0,2,0
1582118420368,2703544,0,2,0
1582118420468,2703698,0,2,0
1582118420568,2703445,0,2,0
1582118420668,2703363,0,2,0
1582118420768,2703059,0,2,0
1582118420868,2702840,0,2,0
1582118420969,2702862,0,2,0
1582118421068,2702969,0,2,0
1582118421168,2702920,0,2,0
1582118421269,2702648,0,2,0
1582118421370,2702704,0,2,0
1582118421468,2703049,0,2,0
1582118421569,2702886,0,2,0
1582118421669,2702744,0,2,0
1582118421768,2702645,0,2,0
1582118421869,2702349,0,2,0
1582118421969,2702119,0,2,0
1582118422069,2701665,0,2,0
1582118422169,2701447,0,2,0
1582118422269,2701454,0,2,0
1582118422369,2701395,0,2,0
1582118422469,2701094,0,2,0
1582118422569,2700636,0,2,0
1582118422669,2700354,0,2,0
1582118422770,2700016,0,2,0
1582118422870,2699620,0,2,0
1582118422969,2699355,0,2,0
1582118423070,2699112,0,2,0
1582118423169,2698445,0,2,0
1582118423270,2697953,0,2,0
1582118423370,2697524,0,2,0
1582118423470,2697065,0,2,0
1582118423570,2696491,0,2,0
1582118423671,2696313,0,2,0
1582118423770,2696095,0,2,0
1582118423870,2695636,0,2,0
1582118423971,2694840,0,2,0
1582118424070,2694121,0,2,0
1582118424170,2693700,0,2,0
1582118424271,2693533,0,2,0
1582118424370,2693327,0,2,0
1582118424470,2693006,0,2,0
1582118424571,2692464,0,2,0
1582118424670,2691838,0,2,0
1582118424770,2691581,0,2,0
1582118424871,2691058,0,2,0
1582118424971,2690865,0,2,0
1582118425071,2690524,0,2,0
1582118425171,2689880,0,2,0
1582118425271,2689293,0,2,0
1582118425371,2688870,0,2,0
1582118425472,2688194,0,2,0
1582118425571,2687613,0,2,0
1582118425671,2686890,0,2,0
1582118425772,2686204,0,2,0
1582118425871,2685481,0,2,0
1582118425972,2684940,0,2,0
1582118426072,2684544,0,2,0
1582118426172,2684064,0,2,0
1582118426272,2683674,0,2,0
1582118426372,2682595,0,2,0
1582118426472,2681756,0,2,0
1582118426572,2680733,0,2,0
1582118426673,2680059,0,2,0
1582118426772,2679389,0,2,0
1582118426872,2678560,0,2,0
1582118426973,2677546,0,2,0
1582118427072,2676575,0,2,0
1582118427172,2675799,0,2,0
1582118427273,2674931,0,2,0
1582118427372,2674859,0,2,0
1582118427472,2674509,0,2,0
1582118427573,2674027,0,2,0
1582118427673,2673197,0,2,0
1582118427772,2672723,0,2,0
1582118427873,2672858,0,2,0
1582118427973,2672946,0,2,0
1582118428073,2672814,0,2,0
1582118428173,2672577,0,2,0
1582118428273,2672549,0,2,0
1582118428373,2672422,0,2,0
1582118428473,2672363,0,2,0
1582118428573,2672586,0,2,0
1582118428674,2672282,0,2,0
1582118428774,2671600,0,2,0
1582118428875,2671393,0,2,0
1582118428975,2671147,0,2,0
1582118429075,2671258,0,2,0
1582118429175,2671267,0,2,0
1582118429274,2670897,0,2,0
1582118429375,2670384,0,2,0
1582118429474,2670120,0,2,0
1582118429575,2669711,0,2,0
1582118429675,2669674,0,2,0
1582118429774,2669609,0,2,0
1582118429874,2669203,0,2,0
1582118429975,2668724,0,2,0
1582118430074,2668292,0,2,0
1582118430174,2668013,0,2,0
1582118430275,2667789,0,2,0
1582118430374,2667318,0,2,0
1582118430474,2666637,0,2,0
1582118430575,2665935,0,2,0
1582118430675,2665511,0,2,0
1582118430775,2665074,0,2,0
1582118430875,2664922,0,2,0
1582118430975,2664598,0,2,0
1582118431075,2663906,0,2,0
1582118431175,2663257,0,2,0
1582118431275,2662892,0,2,0
1582118431375,2662534,0,2,0
1582118431476,2662282,0,2,0
1582118431578,2661759,0,2,0
1582118431675,2661080,0,2,0
1582118431776,2660468,0,2,0
1582118431874,2660058,0,2,0
1582118431974,2660244,0,2,0
1582118432077,2660202,0,2,0
1582118432175,2660114,0,2,0
1582118432275,2659482,0,2,0
1582118432375,2658791,0,2,0
1582118432475,2658414,0,2,0
1582118432576,2658280,0,2,0
1582118432676,2658168,0,2,0
1582118432775,2657996,0,2,0
1582118432875,2657470,0,2,0
1582118432976,2656778,0,2,0
1582118433076,2656398,0,2,0
1582118433176,2656233,0,2,0
1582118433277,2656422,0,2,0
1582118433376,2656494,0,2,0
1582118433476,2656163,0,2,0
1582118433578,2655797,0,2,0
1582118433677,2655568,0,2,0
1582118433780,2655533,0,2,0
1582118433878,2655412,0,2,0
1582118433977,2655471,0,2,0
1582118434076,2654889,0,2,0
1582118434177,2653723,0,2,0
1582118434277,2652644,0,2,0
1582118434377,2652237,0,2,0
1582118434477,2652019,0,2,0
1582118434577,2651743,0,2,0
1582118434677,2651207,0,2,0
1582118434778,2650329,0,2,0
1582118434877,2649652,0,2,0
1582118434977,2649479,0,2,0
1582118435077,2649189,0,2,0
1582118435178,2649100,0,2,0
1582118435278,2649030,0,2,0
1582118435378,2648556,0,2,0
1582118435478,2647942,0,2,0
1582118435578,2647707,0,2,0
1582118435678,2647409,0,2,0
1582118435778,2647233,0,2,0
1582118435878,2647411,0,2,0
1582118435979,2647139,0,2,0
1582118436078,2646810,0,2,0
1582118436178,2646542,0,2,0
1582118436279,2646390,0,2,0
1582118436379,2646252,0,2,0
1582118436478,2646236,0,2,0
1582118436579,2646283,0,2,0
1582118436679,2645755,0,2,0
1582118436778,2645098,0,2,0
1582118436879,2644759,0,2,0
1582118436979,2644540,0,2,0
1582118437078,2644640,0,2,0
1582118437179,2644729,0,2,0
1582118437279,2644483,0,2,0
1582118437379,2644051,0,2,0
1582118437480,2643900,0,2,0
1582118437579,2644172,0,2,0
1582118437679,2644469,0,2,0
1582118437780,2644970,0,2,0
1582118437880,2644982,0,2,0
1582118437979,2644962,0,2,0
1582118438079,2645166,0,2,0
1582118438180,2645333,0,2,0
1582118438280,2645616,0,2,0
1582118438380,2646098,0,2,0
1582118438480,2646447,0,2,0
1582118438580,2646132,0,2,0
1582118438681,2645751,0,2,0
1582118438780,2646010,0,2,0
1582118438880,2646157,0,2,0
1582118438980,2646592,0,2,0
1582118439080,2647195,0,2,0
1582118439180,2647422,0,2,0
1582118439281,2647219,0,2,0
1582118439380,2647006,0,2,0
1582118439480,2646951,0,2,0
1582118439581,2647103,0,2,0
1582118439681,2647458,0,2,0
1582118439781,2647869,0,2,0
1582118439881,2647716,0,2,0
1582118439981,2647761,0,2,0
1582118440080,2648024,0,2,0
1582118440181,2648368,0,2,0
1582118440281,2649084,0,2,0
1582118440381,2649911,0,2,0
1582118440482,2650584,0,2,0
1582118440581,2651087,0,2,0
1582118440681,2651341,0,2,0
1582118440782,2651789,0,2,0
1582118440881,2651953,0,2,0
1582118440982,2652219,0,2,0
1582118441081,2652259,0,2,0
1582118441182,2651997,0,2,0
1582118441282,2651040,0,2,0
1582118441383,2650241,0,2,0
1582118441482,2649646,0,2,0
1582118441582,2649646,0,2,0
1582118441682,2649839,0,2,0
1582118441782,2650007,0,2,0
1582118441882,2650265,0,2,0
1582118441983,2650139,0,2,0
1582118442081,2650225,0,2,0
1582118442182,2650323,0,2,0
1582118442283,2650203,0,2,0
1582118442382,2650282,0,2,0
1582118442482,2650065,0,2,0
1582118442583,2649811,0,2,0
1582118442683,2650120,0,2,0
1582118442783,2650458,0,2,0
1582118442883,2650997,0,2,0
1582118442983,2651497,0,2,0
1582118443082,2651583,0,2,0
1582118443184,2651354,0,2,0
1582118443283,2651320,0,2,0
1582118443383,2651555,0,2,0
1582118443484,2651890,0,2,0
1582118443584,2652237,0,2,0
1582118443683,2652062,0,2,0
1582118443784,2651824,0,2,0
1582118443885,2652006,0,2,0
1582118443983,2652097,0,2,0
1582118444083,2652437,0,2,0
1582118444184,2652317,0,2,0
1582118444284,2652191,0,2,0
1582118444384,2652174,0,2,0
1582118444484,2652379,0,2,0
1582118444584,2652621,0,2,0
1582118444684,2652901,0,2,0
1582118444784,2652785,0,2,0
1582118444884,2652764,0,2,0
1582118444985,2652937,0,2,0
1582118445083,2653037,0,2,0
1582118445184,2653420,0,2,0
1582118445285,2653238,0,2,0
1582118445384,2652899,0,2,0
1582118445484,2652703,0,2,0
1582118445587,2652418,0,2,0
1582118445685,2652426,0,2,0
1582118445785,2652512,0,2,0
1582118445887,2652138,0,2,0
1582118445986,2651458,0,2,0
1582118446084,2651189,0,2,0
1582118446185,2650834,0,2,0
1582118446285,2650403,0,2,0
1582118446385,2649715,0,2,0
1582118446486,2648630,0,2,0
1582118446585,2647501,0,2,0
1582118446685,2647167,0,2,0
1582118446786,2647275,0,2,0
1582118446885,2647545,0,2,0
1582118446986,2647477,0,2,0
1582118447085,2646963,0,2,0
1582118447186,2646407,0,2,0
1582118447286,2646063,0,2,0
1582118447386,2645862,0,2,0
1582118447486,2645965,0,2,0
1582118447592,2645759,0,2,0
1582118447687,2645174,0,2,0
1582118447786,2644846,0,2,0
1582118447888,2644894,0,2,0
1582118447987,2644978,0,2,0
1582118448086,2645406,0,2,0
1582118448186,2645818,0,2,0
1582118448287,2645919,0,2,0
1582118448386,2645706,0,2,0
1582118448486,2645751,0,2,0
1582118448587,2645973,0,2,0
1582118448687,2646228,0,2,0
1582118448787,2646651,0,2,0
1582118448887,2647019,0,2,0
1582118448987,2646680,0,2,0
1582118449086,2646518,0,2,0
1582118449187,2646679,0,2,0
1582118449287,2646900,0,2,0
1582118449387,2647354,0,2,0
1582118449488,2647884,0,2,0
1582118449588,2648058,0,2,0
1582118449687,2648085,0,2,0
1582118449788,2648155,0,2,0
1582118449888,2648487,0,2,0
1582118449988,2649044,0,2,0
1582118450087,2649564,0,2,0
1582118450188,2650424,0,2,0
1582118450288,2650821,0,2,0
1582118450388,2650896,0,2,0
1582118450488,2651288,0,2,0
1582118450588,2651853,0,2,0
1582118450688,2652670,0,2,0
1582118450788,2653592,0,2,0
1582118450888,2653340,0,2,0
1582118450989,2648112,0,2,0
1582118451088,2640867,0,2,0
1582118451188,2635179,0,2,0
1582118451289,2633139,0,2,0
1582118451388,2632765,0,2,0
1582118451488,2633635,0,2,0
1582118451589,2634422,0,2,0
1582118451689,2635072,0,2,0
1582118451789,2637058,0,2,0
1582118451889,2640001,0,2,0
1582118451989,2641800,0,2,0
1582118452088,2643747,0,2,0
1582118452189,2645415,0,2,0
1582118452289,2646164,0,2,0
1582118452389,2646848,0,2,0
1582118452489,2649306,0,2,0
1582118452589,2651398,0,2,0
1582118452689,2653695,0,2,0
1582118452790,2655899,0,2,0
1582118452889,2656091,0,2,0
1582118452989,2656035,0,2,0
1582118453089,2655860,0,2,0
1582118453189,2656007,0,2,0
1582118453290,2656007,0,2,0
1582118453390,2656264,0,2,0
1582118453490,2656000,0,2,0
1582118453590,2655918,0,2,0
1582118453690,2656190,0,2,0
1582118453790,2656462,0,2,0
1582118453891,2656802,0,2,0
1582118453991,2657407,0,2,0
1582118454090,2657823,0,2,0
1582118454190,2658132,0,2,0
1582118454291,2658237,0,2,0
1582118454390,2658459,0,2,0
1582118454490,2658765,0,2,0
1582118454591,2659299,0,2,0
1582118454691,2659616,0,2,0
1582118454791,2659894,0,2,0
1582118454891,2659921,0,2,0
1582118454991,2659994,0,2,0
1582118455090,2660202,0,2,0
1582118455191,2660497,0,2,0
1582118455291,2660812,0,2,0
1582118455391,2660728,0,2,0
1582118455492,2660559,0,2,0
1582118455592,2660711,0,2,0
1582118455691,2660906,0,2,0
1582118455792,2661187,0,2,0
1582118455892,2661452,0,2,0
1582118455992,2661711,0,2,0
1582118456091,2661616,0,2,0
1582118456192,2661177,0,2,0
1582118456292,2660883,0,2,0
1582118456392,2660859,0,2,0
1582118456492,2660724,0,2,0
1582118456592,2660617,0,2,0
1582118456691,2660236,0,2,0
1582118456791,2659916,0,2,0
1582118456890,2659849,0,2,0
1582118456991,2659781,0,2,0
1582118457091,2660042,0,2,0
1582118457191,2660286,0,2,0
1582118457291,2660532,0,2,0
1582118457391,2660632,0,2,0
1582118457491,2660617,0,2,0
1582118457592,2660692,0,2,0
1582118457691,2660880,0,2,0
1582118457791,2660900,0,2,0
1582118457892,2661385,0,2,0
1582118457992,2661210,0,2,0
1582118458091,2661107,0,2,0
1582118458192,2661173,0,2,0
1582118458292,2661557,0,2,0
1582118458391,2662012,0,2,0
1582118458492,2662606,0,2,0
1582118458592,2663152,0,2,0
1582118458692,2663149,0,2,0
1582118458792,2663255,0,2,0
1582118458892,2663349,0,2,0
1582118458992,2663547,0,2,0
1582118459093,2663824,0,2,0
1582118459192,2664141,0,2,0
1582118459292,2664293,0,2,0
1582118459393,2664236,0,2,0
1582118459492,2664050,0,2,0
1582118459593,2663987,0,2,0
1582118459693,2664069,0,2,0
1582118459794,2664346,0,2,0
1582118459893,2664519,0,2,0
1582118459993,2664347,0,2,0
1582118460093,2664228,0,2,0
1582118460193,2664066,0,2,0
1582118460295,2663972,0,2,0
1582118460394,2664239,0,2,0
1582118460494,2664478,0,2,0
1582118460595,2664419,0,2,0
1582118460694,2664064,0,2,0
1582118460794,2663822,0,2,0
1582118460894,2663832,0,2,0
1582118460994,2663894,0,2,0
1582118461094,2664001,0,2,0
1582118461194,2664146,0,2,0
1582118461294,2664050,0,2,0
1582118461394,2663861,0,2,0
1582118461494,2663737,0,2,0
1582118461594,2663765,0,2,0
1582118461694,2663873,0,2,0
1582118461794,2663606,0,2,0
1582118461894,2663413,0,2,0
1582118461994,2662974,0,2,0
1582118462094,2662450,0,2,0
1582118462194,2662108,0,2,0
1582118462294,2661937,0,2,0
1582118462395,2661741,0,2,0
1582118462494,2661551,0,2,0
1582118462595,2661165,0,2,0
1582118462695,2660648,0,2,0
1582118462795,2660266,0,2,0
1582118462895,2660017,0,2,0
1582118462995,2659877,0,2,0
1582118463095,2659628,0,2,0
1582118463195,2659123,0,2,0
1582118463295,2658873,0,2,0
1582118463395,2658740,0,2,0
1582118463495,2658709,0,2,0
1582118463597,2658692,0,2,0
1582118463695,2658928,0,2,0
1582118463795,2658859,0,2,0
1582118463897,2658702,0,2,0
1582118463997,2658656,0,2,0
1582118464095,2658431,0,2,0
1582118464196,2658322,0,2,0
1582118464296,2658523,0,2,0
1582118464396,2658745,0,2,0
1582118464496,2658607,0,2,0
1582118464596,2658125,0,2,0
1582118464696,2658119,0,2,0
1582118464796,2658377,0,2,0
1582118464896,2658735,0,2,0
1582118464996,2659225,0,2,0
1582118465097,2659566,0,2,0
1582118465196,2659886,0,2,0
1582118465296,2659797,0,2,0
1582118465397,2660209,0,2,0
1582118465496,2660592,0,2,0
1582118465600,2661171,0,2,0
1582118465697,2661448,0,2,0
1582118465797,2661555,0,2,0
1582118465898,2661694,0,2,0
1582118465998,2661799,0,2,0
1582118466097,2662237,0,2,0
1582118466197,2662514,0,2,0
1582118466297,2662632,0,2,0
1582118466397,2662355,0,2,0
1582118466497,2662323,0,2,0
1582118466599,2662249,0,2,0
1582118466697,2662782,0,2,0
1582118466797,2663177,0,2,0
1582118466898,2662862,0,2,0
1582118466997,2662570,0,2,0
1582118467097,2662216,0,2,0
1582118467198,2661700,0,2,0
1582118467298,2660495,0,2,0
1582118467398,2658796,0,2,0
1582118467498,2656772,0,2,0
1582118467598,2654959,0,2,0
1582118467698,2653405,0,2,0
1582118467798,2652156,0,2,0
1582118467898,2651433,0,2,0
1582118467998,2651028,0,2,0
1582118468098,2650425,0,2,0
1582118468198,2649701,0,2,0
1582118468298,2649404,0,2,0
1582118468399,2649022,0,2,0
1582118468498,2649002,0,2,0
1582118468598,2648807,0,2,0
1582118468699,2648931,0,2,0
1582118468799,2648718,0,2,0
1582118468898,2648123,0,2,0
1582118468999,2647968,0,2,0
1582118469099,2648138,0,2,0
1582118469199,2649184,0,2,0
1582118469299,2650177,0,2,0
1582118469399,2651240,0,2,0
1582118469499,2651690,0,2,0
1582118469600,2652130,0,2,0
1582118469700,2652556,0,2,0
1582118469800,2653353,0,2,0
1582118469901,2654360,0,2,0
1582118470000,2655337,0,2,0
1582118470100,2655970,0,2,0
1582118470201,2656295,0,2,0
1582118470300,2656943,0,2,0
1582118470400,2657635,0,2,0
1582118470501,2658343,0,2,0
1582118470601,2659057,0,2,0
1582118470701,2659812,0,2,0
1582118470802,2660238,0,2,0
1582118470901,2660614,0,2,0
1582118471002,2661198,0,2,0
1582118471102,2661773,0,2,0
1582118471202,2662459,0,2,0
1582118471302,2663186,0,2,0
1582118471402,2663370,0,2,0
1582118471502,2663688,0,2,0
1582118471602,2664387,0,2,0
1582118471702,2664848,0,2,0
1582118471802,2665458,0,2,0
1582118471902,2665800,0,2,0
1582118472003,2666183,0,2,0
1582118472102,2666474,0,2,0
1582118472202,2666683,0,2,0
1582118472303,2667249,0,2,0
1582118472402,2667667,0,2,0
1582118472502,2668157,0,2,0
1582118472603,2668438,0,2,0
1582118472702,2668352,0,2,0
1582118472803,2668771,0,2,0
1582118472903,2668967,0,2,0
1582118473003,2669230,0,2,0
1582118473103,2669623,0,2,0
1582118473204,2670060,0,2,0
1582118473303,2670238,0,2,0
1582118473403,2670402,0,2,0
1582118473504,2670671,0,2,0
1582118473604,2670631,0,2,0
1582118473703,2671135,0,2,0
1582118473804,2671265,0,2,0
1582118473904,2671265,0,2,0
1582118474005,2670975,0,2,0
1582118474104,2670549,0,2,0
1582118474204,2670000,0,2,0
1582118474304,2669120,0,2,0
1582118474404,2667883,0,2,0
1582118474504,2666408,0,2,0
1582118474604,2664953,0,2,0
1582118474704,2663177,0,2,0
1582118474804,2662094,0,2,0
1582118474904,2660578,0,2,0
1582118475005,2658954,0,2,0
1582118475104,2657788,0,2,0
1582118475204,2656211,0,2,0
1582118475305,2654772,0,2,0
1582118475404,2653232,0,2,0
1582118475504,2652344,0,2,0
1582118475609,2651461,0,2,0
1582118475705,2650806,0,2,0
1582118475805,2650626,0,2,0
1582118475907,2650245,0,2,0
1582118476006,2649626,0,2,0
1582118476105,2649296,0,2,0
1582118476205,2648309,0,2,0
1582118476305,2648538,0,2,0
1582118476405,2647768,0,2,0
1582118476506,2647607,0,2,0
1582118476605,2646441,0,2,0
1582118476705,2645555,0,2,0
1582118476806,2644658,0,2,0
1582118476905,2643370,0,2,0
1582118477006,2642742,0,2,0
1582118477106,2642364,0,2,0
1582118477206,2641212,0,2,0
1582118477306,2639674,0,2,0
1582118477406,2638526,0,2,0
1582118477506,2637613,0,2,0
1582118477609,2636835,0,2,0
1582118477706,2636338,0,2,0
1582118477806,2635753,0,2,0
1582118477908,2633881,0,2,0
1582118478007,2632637,0,2,0
1582118478106,2632100,0,2,0
1582118478206,2632197,0,2,0
1582118478307,2632609,0,2,0
1582118478407,2633224,0,2,0
1582118478507,2632816,0,2,0
1582118478607,2632608,0,2,0
1582118478707,2632982,0,2,0
1582118478807,2634141,0,2,0
1582118478907,2634014,0,2,0
1582118479007,2634076,0,2,0
1582118479107,2634291,0,2,0
1582118479207,2633695,0,2,0
1582118479307,2632946,0,2,0
1582118479407,2632695,0,2,0
1582118479508,2632559,0,2,0
1582118479608,2632551,0,2,0
1582118479708,2632980,0,2,0
1582118479808,2633304,0,2,0
1582118479908,2632962,0,2,0
1582118480008,2633010,0,2,0
1582118480108,2633126,0,2,0
1582118480208,2632760,0,2,0
1582118480308,2633008,0,2,0
1582118480408,2633243,0,2,0
1582118480508,2632811,0,2,0
1582118480608,2632657,0,2,0
1582118480708,2633007,0,2,0
1582118480808,2633085,0,2,0
1582118480908,2633241,0,2,0
1582118481009,2634441,0,2,0
1582118481109,2634987,0,2,0
1582118481208,2635045,0,2,0
1582118481309,2634558,0,2,0
1582118481408,2634579,0,2,0
1582118481508,2634682,0,2,0
1582118481610,2635181,0,2,0
1582118481709,2636528,0,2,0
1582118481809,2636510,0,2,0
1582118481910,2636665,0,2,0
1582118482009,2636900,0,2,0
1582118482109,2637126,0,2,0
1582118482209,2637489,0,2,0
1582118482309,2637952,0,2,0
1582118482409,2638358,0,2,0
1582118482509,2638382,0,2,0
1582118482610,2637820,0,2,0
1582118482709,2638085,0,2,0
1582118482811,2638142,0,2,0
1582118482910,2638792,0,2,0
1582118483009,2639240,0,2,0
1582118483110,2639452,0,2,0
1582118483210,2639368,0,2,0
1582118483310,2639954,0,2,0
1582118483410,2639860,0,2,0
1582118483510,2640593,0,2,0
1582118483610,2643565,0,2,0
1582118483710,2647987,0,2,0
1582118483810,2653639,0,2,0
1582118483910,2656981,0,2,0
1582118484012,2658819,0,2,0
1582118484110,2659507,0,2,0
1582118484210,2660042,0,2,0
1582118484311,2660463,0,2,0
1582118484410,2660987,0,2,0
1582118484510,2661148,0,2,0
1582118484611,2661786,0,2,0
1582118484710,2662138,0,2,0
1582118484811,2663025,0,2,0
1582118484911,2664043,0,2,0
1582118485011,2664924,0,2,0
1582118485111,2665549,0,2,0
1582118485211,2666174,0,2,0
1582118485311,2666921,0,2,0
1582118485411,2667711,0,2,0
1582118485512,2668216,0,2,0
1582118485612,2668580,0,2,0
1582118485711,2668908,0,2,0
1582118485812,2669282,0,2,0
1582118485912,2669705,0,2,0
1582118486012,2669962,0,2,0
1582118486112,2670062,0,2,0
1582118486212,2670213,0,2,0
1582118486311,2670371,0,2,0
1582118486412,2670266,0,2,0
1582118486512,2670307,0,2,0
1582118486612,2670364,0,2,0
1582118486712,2670309,0,2,0
1582118486812,2670519,0,2,0
1582118486912,2670768,0,2,0
1582118487013,2671003,0,2,0
1582118487112,2671211,0,2,0
1582118487212,2671554,0,2,0
1582118487313,2672142,0,2,0
1582118487413,2672647,0,2,0
1582118487512,2673232,0,2,0
1582118487613,2673748,0,2,0
1582118487712,2673897,0,2,0
1582118487813,2673687,0,2,0
1582118487914,2673814,0,2,0
1582118488013,2673655,0,2,0
1582118488113,2673647,0,2,0
1582118488213,2672998,0,2,0
1582118488313,2672425,0,2,0
1582118488413,2671755,0,2,0
1582118488514,2671341,0,2,0
1582118488613,2670429,0,2,0
1582118488713,2669715,0,2,0
1582118488814,2668687,0,2,0
1582118488913,2668220,0,2,0
1582118489013,2668272,0,2,0
1582118489114,2668430,0,2,0
1582118489214,2668345,0,2,0
1582118489314,2668343,0,2,0
1582118489414,2668375,0,2,0
1582118489514,2668762,0,2,0
1582118489614,2668570,0,2,0
1582118489715,2668391,0,2,0
1582118489814,2668258,0,2,0
1582118489914,2668113,0,2,0
1582118490015,2668008,0,2,0
1582118490114,2668293,0,2,0
1582118490214,2668214,0,2,0
1582118490315,2667880,0,2,0
1582118490414,2667879,0,2,0
1582118490514,2667656,0,2,0
1582118490615,2667717,0,2,0
1582118490715,2667817,0,2,0
1582118490815,2667620,0,2,0
1582118490915,2667036,0,2,0
1582118491017,2666700,0,2,0
1582118491115,2666251,0,2,0
1582118491216,2666015,0,2,0
1582118491315,2665956,0,2,0
1582118491417,2666158,0,2,0
1582118491517,2665686,0,2,0
1582118491619,2665342,0,2,0
1582118491717,2665284,0,2,0
1582118491817,2665101,0,2,0
1582118491918,2665394,0,2,0
1582118492017,2665435,0,2,0
1582118492117,2665127,0,2,0
1582118492216,2664835,0,2,0
1582118492316,2664568,0,2,0
1582118492416,2664495,0,2,0
1582118492516,2664707,0,2,0
1582118492617,2665124,0,2,0
1582118492717,2664955,0,2,0
1582118492816,2664689,0,2,0
1582118492916,2664599,0,2,0
1582118493017,2664297,0,2,0
1582118493116,2664200,0,2,0
1582118493216,2664470,0,2,0
1582118493317,2664249,0,2,0
1582118493417,2663844,0,2,0
1582118493517,2663313,0,2,0
1582118493617,2663146,0,2,0
1582118493717,2662814,0,2,0
1582118493817,2662742,0,2,0
1582118493917,2662893,0,2,0
1582118494018,2662182,0,2,0
1582118494117,2661101,0,2,0
1582118494217,2660275,0,2,0
1582118494317,2659477,0,2,0
1582118494417,2658716,0,2,0
1582118494517,2658271,0,2,0
1582118494617,2657727,0,2,0
1582118494717,2657104,0,2,0
1582118494818,2656739,0,2,0
1582118494917,2656305,0,2,0
1582118495017,2656223,0,2,0
1582118495118,2656142,0,2,0
1582118495218,2655494,0,2,0
1582118495318,2654823,0,2,0
1582118495418,2654664,0,2,0
1582118495518,2654574,0,2,0
1582118495618,2654483,0,2,0
1582118495719,2654389,0,2,0
1582118495818,2653784,0,2,0
1582118495918,2653272,0,2,0
1582118496019,2652927,0,2,0
1582118496118,2652563,0,2,0
1582118496218,2652214,0,2,0
1582118496319,2652166,0,2,0
1582118496418,2651505,0,2,0
1582118496520,2651066,0,2,0
1582118496619,2650519,0,2,0
1582118496719,2650007,0,2,0
1582118496819,2649288,0,2,0
1582118496920,2649247,0,2,0
1582118497019,2648195,0,2,0
1582118497119,2647046,0,2,0
1582118497219,2646254,0,2,0
1582118497319,2646189,0,2,0
1582118497419,2645812,0,2,0
1582118497520,2645940,0,2,0
1582118497620,2647027,0,2,0
1582118497719,2648019,0,2,0
1582118497820,2648340,0,2,0
1582118497920,2648415,0,2,0
1582118498020,2648797,0,2,0
1582118498120,2649385,0,2,0
1582118498221,2649482,0,2,0
1582118498320,2649607,0,2,0
1582118498420,2647669,0,2,0
1582118498520,2646780,0,2,0
1582118498620,2646418,0,2,0
1582118498720,2645850,0,2,0
1582118498820,2645583,0,2,0
1582118498920,2645834,0,2,0
1582118499021,2646014,0,2,0
1582118499121,2645716,0,2,0
1582118499220,2645275,0,2,0
1582118499321,2645157,0,2,0
1582118499420,2645089,0,2,0
1582118499520,2645144,0,2,0
1582118499621,2645620,0,2,0
1582118499721,2645669,0,2,0
1582118499821,2645188,0,2,0
1582118499922,2644873,0,2,0
1582118500021,2644656,0,2,0
1582118500121,2644881,0,2,0
1582118500221,2645265,0,2,0
1582118500321,2646094,0,2,0
1582118500421,2645834,0,2,0
1582118500522,2645804,0,2,0
1582118500621,2645684,0,2,0
1582118500721,2645891,0,2,0
1582118500822,2646118,0,2,0
1582118500921,2646454,0,2,0
1582118501022,2646566,0,2,0
1582118501122,2646606,0,2,0
1582118501222,2646579,0,2,0
1582118501322,2646597,0,2,0
1582118501422,2646531,0,2,0
1582118501522,2646755,0,2,0
1582118501622,2646866,0,2,0
1582118501722,2646314,0,2,0
1582118501822,2645541,0,2,0
1582118501922,2645235,0,2,0
1582118502037,2644993,0,2,0
1582118502125,2644983,0,2,0
1582118502224,2644362,0,2,0
1582118502323,2643830,0,2,0
1582118502423,2644127,0,2,0
1582118502522,2644032,0,2,0
1582118502623,2643922,0,2,0
1582118502723,2644313,0,2,0
1582118502823,2644166,0,2,0
1582118502923,2644034,0,2,0
