timestamp,ppg,label,stage,hand
1582558178319,2693718,0,3,0
1582558178378,2692605,0,3,0
1582558178477,2692037,0,3,0
1582558178577,2692076,0,3,0
1582558178677,2692726,0,3,0
1582558178777,2693581,0,3,0
1582558178877,2694245,0,3,0
1582558178977,2695668,0,3,0
1582558179077,2694034,0,3,0
1582558179177,2690230,0,3,0
1582558179277,2685794,0,3,0
1582558179377,2680904,0,3,0
1582558179477,2676819,0,3,0
1582558179577,2674150,0,3,0
1582558179677,2671639,0,3,0
1582558179777,2668782,0,3,0
1582558179877,2666572,0,3,0
1582558179977,2664994,0,3,0
1582558180078,2672884,0,3,0
1582558180178,2677996,0,3,0
1582558180278,2685765,0,3,0
1582558180378,2685188,0,3,0
1582558180478,2684023,0,3,0
1582558180578,2682810,0,3,0
1582558180678,2685787,0,3,0
1582558180778,2688968,0,3,0
1582558180878,2687747,0,3,0
1582558180978,2688862,0,3,0
1582558181078,2697924,0,3,0
1582558181178,2704197,0,3,0
1582558181278,2707317,0,3,0
1582558181378,2707355,0,3,0
1582558181479,2710158,0,3,0
1582558181579,2711881,0,3,0
1582558181679,2713132,0,3,0
1582558181779,2712250,0,3,0
1582558181879,2710932,0,3,0
1582558181979,2710361,0,3,0
1582558182079,2710028,0,3,0
1582558182179,2710153,0,3,0
1582558182279,2709872,0,3,0
1582558182379,2708875,0,3,0
1582558182479,2708037,0,3,0
1582558182579,2707272,0,3,0
1582558182679,2705139,0,3,0
1582558182779,2705591,0,3,0
1582558182879,2705969,0,3,0
1582558182979,2705517,0,3,0
1582558183079,2705796,0,3,0
1582558183180,2705558,0,3,0
1582558183280,2704951,0,3,0
1582558183380,2703779,0,3,0
1582558183480,2702489,0,3,0
1582558183580,2701048,0,3,0
1582558183680,2700263,0,3,0
1582558183780,2699549,0,3,0
1582558183880,2699243,0,3,0
1582558183982,2699206,0,3,0
1582558184081,2699272,0,3,0
1582558184180,2699745,0,3,0
1582558184270,2699148,0,3,0
1582558184370,2698595,0,3,0
1582558184470,2697731,0,3,0
1582558184570,2697504,0,3,0
1582558184671,2699787,0,3,0
1582558184770,2699609,0,3,0
1582558184870,2696988,0,3,0
1582558184971,2694580,0,3,0
1582558185071,2699629,0,3,0
1582558185171,2704604,0,3,0
1582558185271,2706722,0,3,0
1582558185371,2707075,0,3,0
1582558185471,2707214,0,3,0
1582558185571,2707122,0,3,0
1582558185671,2707062,0,3,0
1582558185771,2706124,0,3,0
1582558185871,2704073,0,3,0
1582558185971,2700766,0,3,0
1582558186071,2700053,0,3,0
1582558186171,2703344,0,3,0
1582558186271,2703744,0,3,0
1582558186371,2702231,0,3,0
1582558186472,2701823,0,3,0
1582558186572,2707968,0,3,0
1582558186672,2715151,0,3,0
1582558186772,2719981,0,3,0
1582558186872,2723425,0,3,0
1582558186972,2726277,0,3,0
1582558187072,2729056,0,3,0
1582558187172,2732610,0,3,0
1582558187272,2734395,0,3,0
1582558187372,2736018,0,3,0
1582558187473,2739971,0,3,0
1582558187573,2739524,0,3,0
1582558187673,2739669,0,3,0
1582558187772,2739904,0,3,0
1582558187873,2740347,0,3,0
1582558187973,2740922,0,3,0
1582558188073,2741434,0,3,0
1582558188173,2741804,0,3,0
1582558188273,2741031,0,3,0
1582558188383,2740389,0,3,0
1582558188484,2740115,0,3,0
1582558188584,2739815,0,3,0
1582558188683,2739651,0,3,0
1582558188783,2739862,0,3,0
1582558188884,2739994,0,3,0
1582558188984,2740082,0,3,0
1582558189084,2739659,0,3,0
1582558189185,2738509,0,3,0
1582558189286,2737934,0,3,0
1582558189385,2736799,0,3,0
1582558189486,2736791,0,3,0
1582558189585,2736721,0,3,0
1582558189685,2736342,0,3,0
1582558189785,2734710,0,3,0
1582558189885,2734472,0,3,0
1582558189986,2734691,0,3,0
1582558190085,2734023,0,3,0
1582558190184,2733802,0,3,0
1582558190284,2735423,0,3,0
1582558190385,2736465,0,3,0
1582558190484,2736467,0,3,0
1582558190585,2736481,0,3,0
1582558190685,2735307,0,3,0
1582558190775,2733535,0,3,0
1582558190875,2732056,0,3,0
1582558190975,2730500,0,3,0
1582558191075,2729287,0,3,0
1582558191175,2728299,0,3,0
1582558191275,2727633,0,3,0
1582558191375,2726763,0,3,0
1582558191475,2724569,0,3,0
1582558191576,2722775,0,3,0
1582558191675,2721509,0,3,0
1582558191775,2720198,0,3,0
1582558191875,2719478,0,3,0
1582558191975,2718819,0,3,0
1582558192075,2717422,0,3,0
1582558192175,2715360,0,3,0
1582558192286,2712156,0,3,0
1582558192386,2709447,0,3,0
1582558192486,2707538,0,3,0
1582558192587,2705624,0,3,0
1582558192686,2704546,0,3,0
1582558192786,2703440,0,3,0
1582558192886,2702229,0,3,0
1582558192986,2698901,0,3,0
1582558193086,2695464,0,3,0
1582558193186,2693135,0,3,0
1582558193291,2691396,0,3,0
1582558193376,2690443,0,3,0
1582558193477,2689952,0,3,0
1582558193576,2689735,0,3,0
1582558193676,2689942,0,3,0
1582558193786,2689741,0,3,0
1582558193887,2688224,0,3,0
1582558193987,2687240,0,3,0
1582558194087,2687161,0,3,0
1582558194187,2687330,0,3,0
1582558194287,2687907,0,3,0
1582558194387,2688942,0,3,0
1582558194487,2689420,0,3,0
1582558194587,2688524,0,3,0
1582558194687,2688032,0,3,0
1582558194787,2688349,0,3,0
1582558194887,2689176,0,3,0
1582558194987,2690221,0,3,0
1582558195087,2691756,2,3,b
1582558195188,2693198,2,3,b
1582558195288,2693722,2,3,b
1582558195388,2693671,2,3,b
1582558195488,2694144,2,3,b
1582558195588,2695010,2,3,b
1582558195688,2695642,2,3,b
1582558195778,2696734,2,3,b
1582558195878,2697536,2,3,b
1582558195978,2698210,2,3,b
1582558196078,2697504,2,3,b
1582558196178,2696681,2,3,b
1582558196278,2696320,2,3,b
1582558196378,2696387,2,3,b
1582558196478,2696635,2,3,b
1582558196579,2697100,2,3,b
1582558196679,2697535,2,3,b
1582558196779,2698219,2,3,b
1582558196879,2698210,2,3,b
1582558196979,2698141,2,3,b
1582558197079,2698408,2,3,b
1582558197179,2698836,2,3,b
1582558197279,2699337,2,3,b
1582558197379,2700000,2,3,b
1582558197489,2700850,2,3,b
1582558197589,2701671,2,3,b
1582558197689,2702019,2,3,b
1582558197789,2700434,2,3,b
1582558197889,2701827,2,3,b
1582558197989,2701999,2,3,b
1582558198090,2709773,2,3,b
1582558198190,2717709,2,3,b
1582558198279,2723845,2,3,b
1582558198390,2727599,2,3,b
1582558198490,2731468,2,3,b
1582558198590,2734204,2,3,b
1582558198690,2736756,2,3,b
1582558198790,2739361,2,3,b
1582558198891,2741714,2,3,b
1582558198991,2744150,2,3,b
1582558199090,2746217,0,3,0
1582558199190,2748304,0,3,0
1582558199291,2749943,0,3,0
1582558199391,2751346,0,3,0
1582558199491,2752634,0,3,0
1582558199591,2753992,0,3,0
1582558199691,2755277,0,3,0
1582558199791,2756716,0,3,0
1582558199891,2759142,0,3,0
1582558199991,2760867,0,3,0
1582558200091,2761182,0,3,0
1582558200191,2760514,0,3,0
1582558200291,2760562,0,3,0
1582558200391,2759930,0,3,0
1582558200491,2759013,0,3,0
1582558200591,2757703,0,3,0
1582558200691,2755965,0,3,0
1582558200781,2753989,0,3,0
1582558200881,2751760,0,3,0
1582558200981,2749370,0,3,0
1582558201081,2746719,0,3,0
1582558201181,2743811,0,3,0
1582558201282,2744850,0,3,0
1582558201382,2746868,0,3,0
1582558201482,2750259,0,3,0
1582558201582,2751594,0,3,0
1582558201682,2752250,0,3,0
1582558201782,2752867,0,3,0
1582558201882,2753284,0,3,0
1582558201982,2753852,0,3,0
1582558202082,2754379,0,3,0
1582558202182,2754163,0,3,0
1582558202282,2753331,0,3,0
1582558202382,2752876,0,3,0
1582558202493,2752539,0,3,0
1582558202593,2752042,0,3,0
1582558202695,2752072,0,3,0
1582558202793,2752076,0,3,0
1582558202893,2751247,0,3,0
1582558202993,2749377,0,3,0
1582558203093,2748153,0,3,0
1582558203193,2747177,0,3,0
1582558203293,2746318,0,3,0
1582558203393,2746053,0,3,0
1582558203494,2746004,0,3,0
1582558203594,2744713,0,3,0
1582558203693,2742610,0,3,0
1582558203793,2741233,0,3,0
1582558203884,2740199,0,3,0
1582558203983,2739499,0,3,0
1582558204083,2738907,0,3,0
1582558204184,2737654,0,3,0
1582558204283,2735947,0,3,0
1582558204383,2733705,0,3,0
1582558204484,2731623,0,3,0
1582558204584,2730223,0,3,0
1582558204684,2728861,0,3,0
1582558204784,2727605,0,3,0
1582558204884,2726580,0,3,0
1582558204984,2725748,0,3,0
1582558205084,2725011,0,3,0
1582558205184,2721893,0,3,0
1582558205287,2718737,0,3,0
1582558205384,2716430,0,3,0
1582558205485,2714344,0,3,0
1582558205585,2712863,0,3,0
1582558205685,2711971,0,3,0
1582558205785,2711466,0,3,0
1582558205885,2711190,0,3,0
1582558205985,2709884,0,3,0
1582558206085,2707371,0,3,0
1582558206185,2706145,0,3,0
1582558206285,2705560,0,3,0
1582558206385,2705492,0,3,0
1582558206485,2705589,0,3,0
1582558206590,2706251,0,3,0
1582558206686,2706967,0,3,0
1582558206785,2707654,0,3,0
1582558206885,2706850,0,3,0
1582558206985,2706058,0,3,0
1582558207085,2706125,0,3,0
1582558207186,2706505,0,3,0
1582558207286,2707151,0,3,0
1582558207386,2708068,0,3,0
1582558207486,2709124,0,3,0
1582558207586,2710001,0,3,0
1582558207686,2709332,0,3,0
1582558207786,2708695,0,3,0
1582558207886,2708728,0,3,0
1582558207986,2709173,0,3,0
1582558208086,2709929,0,3,0
1582558208186,2710838,0,3,0
1582558208297,2711972,0,3,0
1582558208397,2712628,0,3,0
1582558208497,2712191,0,3,0
1582558208597,2711952,0,3,0
1582558208697,2712455,0,3,0
1582558208797,2712973,0,3,0
1582558208897,2713647,0,3,0
1582558208997,2714391,0,3,0
1582558209097,2715180,0,3,0
1582558209197,2715730,0,3,0
1582558209298,2715598,0,3,0
1582558209397,2715832,0,3,0
1582558209498,2716186,0,3,0
1582558209598,2716613,0,3,0
1582558209697,2717287,0,3,0
1582558209797,2717738,0,3,0
1582558209898,2716603,0,3,0
1582558209997,2715649,0,3,0
1582558210097,2715280,0,3,0
1582558210198,2715572,0,3,0
1582558210298,2713936,0,3,0
1582558210398,2711474,0,3,0
1582558210498,2709423,0,3,0
1582558210598,2707377,0,3,0
1582558210687,2705132,0,3,0
1582558210788,2702983,0,3,0
1582558210888,2701083,0,3,0
1582558210988,2699566,0,3,0
1582558211088,2698302,0,3,0
1582558211188,2697461,0,3,0
1582558211288,2696427,0,3,0
1582558211388,2695471,0,3,0
1582558211489,2694362,0,3,0
1582558211589,2692755,0,3,0
1582558211689,2691642,0,3,0
1582558211789,2690568,0,3,0
1582558211888,2686945,0,3,0
1582558211989,2686734,0,3,0
1582558212089,2686414,2,3,b
1582558212189,2683589,2,3,b
1582558212289,2680163,2,3,b
1582558212399,2677340,2,3,b
1582558212499,2675075,2,3,b
1582558212599,2672911,2,3,b
1582558212699,2670166,2,3,b
1582558212799,2666011,2,3,b
1582558212900,2664437,2,3,b
1582558212999,2656653,2,3,b
1582558213100,2665187,2,3,b
1582558213200,2681086,2,3,b
1582558213300,2694886,2,3,b
1582558213400,2701710,2,3,b
1582558213500,2706749,2,3,b
1582558213600,2710992,2,3,b
1582558213700,2713860,2,3,b
1582558213800,2716089,2,3,b
1582558213900,2718382,2,3,b
1582558214001,2720823,2,3,b
1582558214101,2723144,2,3,b
1582558214200,2725515,2,3,b
1582558214301,2727645,2,3,b
1582558214401,2729947,2,3,b
1582558214501,2731701,2,3,b
1582558214601,2732347,2,3,b
1582558214701,2732082,2,3,b
1582558214801,2732605,2,3,b
1582558214901,2732909,2,3,b
1582558215001,2733121,2,3,b
1582558215101,2733135,2,3,b
1582558215201,2733359,2,3,b
1582558215301,2733235,2,3,b
1582558215401,2732392,2,3,b
1582558215502,2731459,2,3,b
1582558215602,2730877,2,3,b
1582558215691,2732187,2,3,b
1582558215791,2736000,2,3,b
1582558215891,2740818,2,3,b
1582558215991,2743681,2,3,b
1582558216091,2746193,2,3,b
1582558216191,2748363,2,3,b
1582558216291,2749960,2,3,b
1582558216391,2750906,2,3,b
1582558216492,2751947,2,3,b
1582558216592,2752634,2,3,b
1582558216692,2753516,2,3,b
1582558216792,2754248,2,3,b
1582558216892,2755271,2,3,b
1582558216992,2755847,2,3,b
1582558217092,2756643,2,3,b
1582558217192,2757073,2,3,b
1582558217293,2757241,2,3,b
1582558217393,2757377,2,3,b
1582558217493,2757580,2,3,b
1582558217593,2757816,2,3,b
1582558217693,2758194,2,3,b
1582558217793,2758577,2,3,b
1582558217893,2758808,2,3,b
1582558217993,2759228,2,3,b
1582558218093,2758676,0,3,0
1582558218193,2758504,0,3,0
1582558218303,2758560,0,3,0
1582558218403,2758043,0,3,0
1582558218503,2756979,0,3,0
1582558218604,2756909,0,3,0
1582558218703,2757126,0,3,0
1582558218803,2757482,0,3,0
1582558218904,2757608,0,3,0
1582558219004,2758255,0,3,0
1582558219104,2757529,0,3,0
1582558219204,2753901,0,3,0
1582558219304,2752327,0,3,0
1582558219405,2751857,0,3,0
1582558219505,2751891,0,3,0
1582558219604,2751785,0,3,0
1582558219704,2750113,0,3,0
1582558219804,2748260,0,3,0
1582558219904,2746966,0,3,0
1582558220006,2745284,0,3,0
1582558220105,2743898,0,3,0
1582558220205,2742785,0,3,0
1582558220305,2741928,0,3,0
1582558220405,2739801,0,3,0
1582558220505,2737005,0,3,0
1582558220605,2734898,0,3,0
1582558220695,2733262,0,3,0
1582558220795,2732026,0,3,0
1582558220895,2731413,0,3,0
1582558220995,2730479,0,3,0
1582558221095,2726269,0,3,0
1582558221195,2719487,0,3,0
1582558221295,2713776,0,3,0
1582558221395,2711097,0,3,0
1582558221496,2712102,0,3,0
1582558221596,2718902,0,3,0
1582558221695,2721781,0,3,0
1582558221795,2720944,0,3,0
1582558221895,2719278,0,3,0
1582558221995,2718322,0,3,0
1582558222097,2717922,0,3,0
1582558222197,2718003,0,3,0
1582558222307,2719255,0,3,0
1582558222407,2718610,0,3,0
1582558222507,2716321,0,3,0
1582558222607,2714641,0,3,0
1582558222707,2714466,0,3,0
1582558222807,2714403,0,3,0
1582558222907,2715596,0,3,0
1582558223006,2717169,0,3,0
1582558223107,2718493,0,3,0
1582558223206,2717089,0,3,0
1582558223306,2715908,0,3,0
1582558223407,2715843,0,3,0
1582558223507,2716219,0,3,0
1582558223607,2717086,0,3,0
1582558223707,2718449,0,3,0
1582558223807,2719756,0,3,0
1582558223907,2721172,0,3,0
1582558224007,2721018,0,3,0
1582558224107,2719448,0,3,0
1582558224207,2718417,0,3,0
1582558224308,2718409,0,3,0
1582558224407,2718689,0,3,0
1582558224509,2719319,0,3,0
1582558224608,2720424,0,3,0
1582558224707,2722156,0,3,0
1582558224807,2723595,0,3,0
1582558224908,2723237,0,3,0
1582558225007,2723127,0,3,0
1582558225108,2723374,0,3,0
1582558225208,2724365,0,3,0
1582558225308,2725071,0,3,0
1582558225408,2726453,0,3,0
1582558225508,2727792,0,3,0
1582558225608,2728565,0,3,0
1582558225698,2728797,0,3,0
1582558225798,2727493,0,3,0
1582558225898,2726221,0,3,0
1582558225998,2725416,0,3,0
1582558226098,2724734,0,3,0
1582558226198,2724511,0,3,0
1582558226298,2724581,0,3,0
1582558226398,2724546,0,3,0
1582558226499,2724685,0,3,0
1582558226599,2724467,0,3,0
1582558226699,2723447,0,3,0
1582558226799,2722961,0,3,0
1582558226899,2722717,0,3,0
1582558226999,2723711,0,3,0
1582558227099,2725496,0,3,0
1582558227199,2727253,0,3,0
1582558227299,2728776,0,3,0
1582558227409,2730173,0,3,0
1582558227514,2730784,0,3,0
1582558227600,2731128,0,3,0
1582558227699,2731512,0,3,0
1582558227799,2732304,0,3,0
1582558227899,2732801,0,3,0
1582558227999,2733548,0,3,0
1582558228099,2734499,0,3,0
1582558228200,2735622,0,3,0
1582558228300,2736954,0,3,0
1582558228400,2737249,0,3,0
1582558228500,2737624,0,3,0
1582558228600,2737876,0,3,0
1582558228700,2738048,0,3,0
1582558228800,2739187,0,3,0
1582558228900,2739699,0,3,0
1582558229000,2740578,0,3,0
1582558229100,2741710,0,3,0
1582558229210,2741483,0,3,0
1582558229311,2740059,0,3,0
1582558229411,2738721,0,3,0
1582558229511,2737241,0,3,0
1582558229611,2735735,0,3,0
1582558229711,2734644,0,3,0
1582558229801,2734084,0,3,0
1582558229900,2733268,0,3,0
1582558230001,2729741,0,3,0
1582558230101,2726638,0,3,0
1582558230201,2724904,0,3,0
1582558230301,2724123,0,3,0
1582558230401,2724998,0,3,0
1582558230501,2726549,0,3,0
1582558230601,2728090,0,3,0
1582558230701,2727990,0,3,0
1582558230801,2727562,0,3,0
1582558230901,2727961,0,3,0
1582558231001,2727574,0,3,0
1582558231101,2727123,0,3,0
1582558231202,2727256,0,3,0
1582558231302,2727234,0,3,0
1582558231402,2725301,0,3,0
1582558231502,2722580,0,3,0
1582558231602,2721003,0,3,0
1582558231702,2720092,0,3,0
1582558231802,2719202,0,3,0
1582558231902,2719172,0,3,0
1582558232002,2718705,0,3,0
1582558232102,2716136,0,3,0
1582558232202,2713747,0,3,0
1582558232313,2712184,0,3,0
1582558232413,2710515,0,3,0
1582558232513,2709456,0,3,0
1582558232613,2707603,0,3,0
1582558232713,2705020,0,3,0
1582558232813,2700983,0,3,0
1582558232913,2699558,0,3,0
1582558233013,2698504,0,3,0
1582558233113,2695793,0,3,0
1582558233213,2692524,0,3,0
1582558233314,2688765,0,3,0
1582558233413,2683629,0,3,0
1582558233513,2678703,0,3,0
1582558233614,2673780,0,3,0
1582558233713,2668758,0,3,0
1582558233813,2664628,0,3,0
1582558233914,2661375,0,3,0
1582558234014,2658647,0,3,0
1582558234114,2656649,0,3,0
1582558234214,2655212,0,3,0
1582558234314,2654049,0,3,0
1582558234414,2653127,0,3,0
1582558234514,2651519,0,3,0
1582558234604,2650295,0,3,0
1582558234704,2650199,0,3,0
1582558234804,2651340,0,3,0
1582558234904,2654258,0,3,0
1582558235004,2658711,0,3,0
1582558235104,2664709,0,3,0
1582558235204,2671220,0,3,0
1582558235306,2676765,0,3,0
1582558235404,2680163,0,3,0
1582558235505,2683015,0,3,0
1582558235605,2685458,0,3,0
1582558235705,2687432,0,3,0
1582558235805,2689126,0,3,0
1582558235905,2690808,0,3,0
1582558236005,2692886,0,3,0
1582558236105,2693905,0,3,0
1582558236205,2692868,0,3,0
1582558236305,2691962,0,3,0
1582558236405,2691623,0,3,0
1582558236505,2691483,0,3,0
1582558236607,2693758,0,3,0
1582558236706,2696382,0,3,0
1582558236805,2698050,0,3,0
1582558236905,2699728,0,3,0
1582558237005,2702945,0,3,0
1582558237105,2703117,0,3,0
1582558237206,2701896,0,3,0
1582558237306,2701111,0,3,0
1582558237406,2699932,0,3,0
1582558237506,2699007,0,3,0
1582558237606,2698207,0,3,0
1582558237706,2696714,0,3,0
1582558237806,2696183,0,3,0
1582558237906,2702973,0,3,0
1582558238006,2711250,0,3,0
1582558238106,2719273,0,3,0
1582558238206,2725013,0,3,0
1582558238317,2730508,0,3,0
1582558238417,2734819,0,3,0
1582558238517,2738138,0,3,0
1582558238617,2741078,0,3,0
1582558238717,2743753,0,3,0
1582558238817,2746113,0,3,0
1582558238917,2748568,0,3,0
1582558239017,2750776,0,3,0
1582558239117,2752930,0,3,0
1582558239217,2754896,0,3,0
1582558239317,2756169,0,3,0
1582558239417,2757532,0,3,0
1582558239518,2758642,0,3,0
1582558239607,2759307,0,3,0
1582558239707,2759395,0,3,0
1582558239807,2760480,0,3,0
1582558239907,2761056,0,3,0
1582558240007,2761948,0,3,0
1582558240107,2762478,0,3,0
1582558240208,2762955,0,3,0
1582558240308,2763458,0,3,0
1582558240408,2763718,0,3,0
1582558240508,2763506,0,3,0
1582558240618,2763366,0,3,0
1582558240708,2763429,0,3,0
1582558240808,2763456,0,3,0
1582558240908,2762270,0,3,0
1582558241008,2761570,0,3,0
1582558241110,2760562,0,3,0
1582558241208,2759606,0,3,0
1582558241308,2758540,0,3,0
1582558241409,2757643,0,3,0
1582558241509,2756489,0,3,0
1582558241619,2755016,0,3,0
1582558241709,2752241,0,3,0
1582558241809,2750111,0,3,0
1582558241909,2748171,0,3,0
1582558242009,2746254,0,3,0
1582558242109,2744771,0,3,0
1582558242209,2743504,0,3,0
1582558242309,2742111,0,3,0
1582558242419,2739071,0,3,0
1582558242519,2736082,0,3,0
1582558242619,2733918,0,3,0
1582558242719,2732230,0,3,0
1582558242819,2730986,0,3,0
1582558242920,2730004,0,3,0
1582558243020,2728804,0,3,0
1582558243120,2725666,0,3,0
1582558243220,2722973,0,3,0
1582558243320,2720768,0,3,0
1582558243420,2719230,0,3,0
1582558243520,2718054,0,3,0
1582558243620,2717533,0,3,0
1582558243720,2716984,0,3,0
1582558243820,2714254,0,3,0
1582558243920,2712105,0,3,0
1582558244021,2710860,0,3,0
1582558244121,2710131,0,3,0
1582558244220,2709838,0,3,0
1582558244321,2710101,0,3,0
1582558244421,2710377,0,3,0
1582558244521,2710538,0,3,0
1582558244621,2708837,0,3,0
1582558244721,2708120,0,3,0
1582558244821,2707978,0,3,0
1582558244921,2707979,0,3,0
1582558245021,2708498,0,3,0
1582558245121,2709311,0,3,0
1582558245221,2710219,0,3,0
1582558245322,2710938,0,3,0
1582558245421,2711115,0,3,0
1582558245522,2710011,0,3,0
1582558245622,2709635,0,3,0
1582558245711,2709724,0,3,0
1582558245811,2709937,0,3,0
1582558245911,2709398,0,3,0
1582558246011,2706204,0,3,0
1582558246111,2706841,0,3,0
1582558246211,2711928,0,3,0
1582558246312,2719967,0,3,0
1582558246412,2724385,0,3,0
1582558246512,2728769,0,3,0
1582558246612,2732503,0,3,0
1582558246712,2735953,0,3,0
1582558246812,2739124,0,3,0
1582558246912,2742126,0,3,0
1582558247012,2744890,0,3,0
1582558247112,2745907,0,3,0
1582558247212,2746980,0,3,0
1582558247312,2748264,0,3,0
1582558247413,2749660,0,3,0
1582558247513,2751017,0,3,0
1582558247613,2752636,0,3,0
1582558247713,2754395,0,3,0
1582558247813,2755911,0,3,0
1582558247913,2756447,0,3,0
1582558248013,2756599,0,3,0
1582558248113,2757123,0,3,0
1582558248213,2757632,0,3,0
1582558248324,2758510,0,3,0
1582558248424,2759460,0,3,0
1582558248514,2760673,0,3,0
1582558248613,2761753,0,3,0
1582558248714,2761301,0,3,0
1582558248814,2760825,0,3,0
1582558248913,2761894,0,3,0
1582558249013,2761461,0,3,0
1582558249113,2761096,0,3,0
1582558249214,2761689,0,3,0
1582558249315,2761568,0,3,0
1582558249415,2761047,0,3,0
1582558249524,2760252,0,3,0
1582558249614,2758105,0,3,0
1582558249714,2756100,0,3,0
1582558249814,2755269,0,3,0
1582558249924,2754760,0,3,0
1582558250014,2756156,0,3,0
1582558250115,2754986,0,3,0
1582558250214,2753900,0,3,0
1582558250325,2754084,0,3,0
1582558250425,2755615,0,3,0
1582558250525,2757731,0,3,0
1582558250625,2761934,0,3,0
1582558250715,2761827,0,3,0
1582558250815,2760138,0,3,0
1582558250915,2756653,0,3,0
1582558251015,2752331,0,3,0
1582558251115,2748977,0,3,0
1582558251215,2747719,0,3,0
1582558251315,2746192,0,3,0
1582558251415,2740926,0,3,0
1582558251515,2736730,0,3,0
1582558251616,2736332,0,3,0
1582558251716,2738858,0,3,0
1582558251815,2740780,0,3,0
1582558251915,2742605,0,3,0
1582558252015,2743149,0,3,0
1582558252115,2742121,0,3,0
1582558252226,2741937,0,3,0
1582558252326,2742867,0,3,0
1582558252426,2741385,0,3,0
1582558252526,2740282,0,3,0
1582558252626,2739609,0,3,0
1582558252726,2738234,0,3,0
1582558252826,2737386,0,3,0
1582558252926,2734187,0,3,0
1582558253026,2730798,0,3,0
1582558253126,2728589,0,3,0
1582558253226,2726893,0,3,0
1582558253327,2725826,0,3,0
1582558253427,2725402,0,3,0
1582558253527,2725526,0,3,0
1582558253627,2725712,0,3,0
1582558253727,2726835,0,3,0
1582558253827,2730486,0,3,0
1582558253927,2735839,0,3,0
1582558254027,2739451,0,3,0
1582558254127,2742956,0,3,0
1582558254227,2746125,0,3,0
1582558254327,2748290,0,3,0
1582558254427,2750597,0,3,0
1582558254527,2753467,0,3,0
1582558254627,2751057,0,3,0
1582558254727,2749706,0,3,0
1582558254828,2749384,0,3,0
1582558254928,2749862,0,3,0
1582558255029,2749692,0,3,0
1582558255129,2749748,0,3,0
1582558255229,2749204,0,3,0
1582558255329,2749813,0,3,0
1582558255429,2752261,0,3,0
1582558255530,2754749,0,3,0
1582558255629,2757729,0,3,0
1582558255719,2760744,0,3,0
1582558255818,2761979,0,3,0
1582558255918,2762140,0,3,0
1582558256018,2763173,0,3,0
1582558256118,2763695,0,3,0
1582558256218,2764051,0,3,0
1582558256319,2764061,0,3,0
1582558256418,2766366,0,3,0
1582558256519,2768513,0,3,0
1582558256619,2770515,0,3,0
1582558256719,2771954,0,3,0
1582558256819,2773358,0,3,0
1582558256919,2775092,0,3,0
1582558257019,2776622,0,3,0
1582558257119,2777992,0,3,0
1582558257219,2779859,0,3,0
1582558257330,2781562,0,3,0
1582558257429,2781961,0,3,0
1582558257530,2782843,0,3,0
1582558257629,2783934,0,3,0
1582558257729,2784520,0,3,0
1582558257830,2781585,0,3,0
1582558257930,2759566,0,3,0
1582558258030,2793205,0,3,0
1582558258130,2790612,0,3,0
1582558258230,2783593,0,3,0
1582558258330,2774948,0,3,0
1582558258430,2766870,0,3,0
1582558258530,2763386,0,3,0
1582558258630,2760753,0,3,0
1582558258730,2759625,0,3,0
1582558258830,2760143,0,3,0
1582558258930,2760001,0,3,0
1582558259030,2758945,0,3,0
1582558259130,2757839,0,3,0
1582558259230,2758297,0,3,0
1582558259331,2757080,0,3,0
1582558259431,2756856,0,3,0
1582558259531,2758099,0,3,0
1582558259631,2757067,0,3,0
1582558259731,2754677,0,3,0
1582558259831,2751923,0,3,0
1582558259931,2750782,0,3,0
1582558260031,2749915,0,0,0
1582558260131,2749417,0,0,0
1582558260231,2749692,0,0,0
1582558260331,2749374,0,0,0
1582558260431,2748247,0,0,0
1582558260531,2747376,0,0,0
1582558260631,2746312,0,0,0
1582558260721,2745637,0,0,0
1582558260821,2744118,0,0,0
1582558260921,2742908,0,0,0
1582558261021,2741722,0,0,0
1582558261121,2739508,0,0,0
1582558261222,2737496,0,0,0
1582558261322,2736465,0,0,0
1582558261422,2735475,0,0,0
1582558261522,2732308,0,0,0
1582558261622,2731228,0,0,0
1582558261722,2729643,0,0,0
1582558261822,2727117,0,0,0
1582558261922,2724734,0,0,0
1582558262022,2722666,0,0,0
1582558262122,2720765,0,0,0
1582558262222,2719305,0,0,0
1582558262333,2718300,0,0,0
1582558262433,2717495,0,0,0
1582558262533,2715787,0,0,0
1582558262633,2713582,0,0,0
1582558262733,2711630,0,0,0
1582558262833,2709998,0,0,0
1582558262933,2708409,0,0,0
1582558263033,2707325,0,0,0
1582558263133,2706104,0,0,0
1582558263233,2705351,0,0,0
1582558263334,2704074,0,0,0
1582558263433,2702200,0,0,0
1582558263534,2701325,0,0,0
1582558263634,2700318,0,0,0
1582558263734,2702852,0,0,0
1582558263834,2710345,0,0,0
1582558263934,2712659,0,0,0
1582558264034,2715053,0,0,0
1582558264134,2715693,0,0,0
1582558264234,2716622,0,0,0
1582558264334,2718127,0,0,0
1582558264434,2720185,0,0,0
1582558264534,2722307,0,0,0
1582558264634,2723971,0,0,0
1582558264736,2724931,0,0,0
1582558264834,2726342,0,0,0
1582558264924,2727451,0,0,0
1582558265024,2727701,0,0,0
1582558265124,2728044,0,0,0
1582558265224,2729103,0,0,0
1582558265326,2730031,0,0,0
1582558265425,2731110,0,0,0
1582558265526,2732578,0,0,0
1582558265625,2734306,0,0,0
1582558265725,2736215,0,0,0
1582558265825,2738022,0,0,0
1582558265925,2739112,0,0,0
1582558266025,2740450,0,0,0
1582558266125,2741583,0,0,0
1582558266225,2742435,0,0,0
1582558266325,2743499,0,0,0
1582558266425,2744569,0,0,0
1582558266525,2745514,0,0,0
1582558266626,2746090,0,0,0
1582558266725,2746077,0,0,0
1582558266825,2746388,0,0,0
1582558266925,2746815,0,0,0
1582558267025,2747106,0,0,0
1582558267126,2747502,0,0,0
1582558267226,2748042,0,0,0
1582558267326,2748998,0,0,0
1582558267426,2749501,0,0,0
1582558267527,2749606,0,0,0
1582558267626,2749462,0,0,0
1582558267726,2749231,0,0,0
1582558267826,2749245,0,0,0
1582558267926,2749489,0,0,0
1582558268026,2749408,0,0,0
1582558268137,2749701,0,0,0
1582558268236,2749782,0,0,0
1582558268337,2748867,0,0,0
1582558268437,2748172,0,0,0
1582558268537,2747891,0,0,0
1582558268637,2747599,0,0,0
1582558268737,2747279,0,0,0
1582558268837,2747340,0,0,0
1582558268937,2747737,0,0,0
1582558269037,2747542,0,0,0
1582558269137,2745869,0,0,0
1582558269237,2745160,0,0,0
1582558269337,2744619,0,0,0
1582558269438,2744086,0,0,0
1582558269537,2743233,0,0,0
1582558269638,2742765,0,0,0
1582558269738,2742703,0,0,0
1582558269838,2741611,0,0,0
1582558269938,2739992,0,0,0
1582558270038,2739251,0,0,0
1582558270138,2738643,0,0,0
1582558270238,2738181,0,0,0
1582558270338,2738054,0,0,0
1582558270438,2738156,0,0,0
1582558270538,2738112,0,0,0
1582558270638,2736235,0,0,0
1582558270728,2734662,0,0,0
1582558270828,2734074,0,0,0
1582558270928,2733287,0,0,0
1582558271028,2732886,0,0,0
1582558271129,2732996,0,0,0
1582558271228,2733249,0,0,0
1582558271328,2731299,0,0,0
1582558271429,2729089,0,0,0
1582558271529,2727742,0,0,0
1582558271629,2727050,0,0,0
1582558271729,2726490,0,0,0
1582558271829,2726603,0,0,0
1582558271929,2726852,0,0,0
1582558272029,2726991,0,0,0
1582558272129,2724478,0,0,0
1582558272229,2722378,0,0,0
1582558272339,2721102,0,0,0
1582558272439,2720499,0,0,0
1582558272539,2720153,0,0,0
1582558272639,2720416,0,0,0
1582558272739,2721020,0,0,0
1582558272839,2721504,0,0,0
1582558272940,2720813,0,0,0
1582558273040,2718466,0,0,0
1582558273140,2717367,0,0,0
1582558273240,2716876,0,0,0
1582558273340,2716627,0,0,0
1582558273440,2716819,0,0,0
1582558273540,2717551,0,0,0
1582558273640,2718402,0,0,0
1582558273740,2719289,0,0,0
1582558273840,2718244,0,0,0
1582558273940,2717441,0,0,0
1582558274041,2717643,0,0,0
1582558274141,2717868,0,0,0
1582558274240,2718371,0,0,0
1582558274341,2719473,0,0,0
1582558274441,2720479,0,0,0
1582558274541,2721716,0,0,0
1582558274641,2721852,0,0,0
1582558274741,2720965,0,0,0
1582558274841,2720948,0,0,0
1582558274941,2721326,0,0,0
1582558275041,2721783,0,0,0
1582558275141,2722711,0,0,0
1582558275241,2723690,0,0,0
1582558275342,2724944,0,0,0
1582558275441,2726011,0,0,0
1582558275542,2725724,0,0,0
1582558275642,2725456,0,0,0
1582558275732,2725787,0,0,0
1582558275831,2726317,0,0,0
1582558275932,2726880,0,0,0
1582558276031,2727806,0,0,0
1582558276131,2728856,0,0,0
1582558276232,2729990,0,0,0
1582558276332,2730633,0,0,0
1582558276432,2730199,0,0,0
1582558276532,2730226,0,0,0
1582558276632,2730635,0,0,0
1582558276732,2730867,0,0,0
1582558276832,2731389,0,0,0
1582558276932,2732215,0,0,0
1582558277032,2732971,0,0,0
1582558277132,2733456,0,0,0
1582558277232,2732851,0,0,0
1582558277333,2732762,0,0,0
1582558277443,2732871,0,0,0
1582558277543,2733013,0,0,0
1582558277643,2733469,0,0,0
1582558277743,2734187,0,0,0
1582558277843,2734907,0,0,0
1582558277942,2735281,0,0,0
1582558278042,2734352,0,0,0
1582558278142,2734147,0,0,0
1582558278242,2733910,0,0,0
1582558278342,2733973,0,0,0
1582558278442,2734116,0,0,0
1582558278542,2734795,0,0,0
1582558278642,2735492,0,0,0
1582558278742,2735906,0,0,0
1582558278842,2734234,0,0,0
1582558278942,2733480,0,0,0
1582558279042,2732333,0,0,0
1582558279142,2730480,0,0,0
1582558279242,2730946,0,0,0
1582558279343,2731359,0,0,0
1582558279443,2732507,0,0,0
1582558279546,2734019,0,0,0
1582558279643,2734076,0,0,0
1582558279744,2733124,0,0,0
1582558279844,2732284,0,0,0
1582558279944,2732364,0,0,0
1582558280045,2732623,0,4,0
1582558280144,2732496,0,4,0
1582558280234,2732458,0,4,0
1582558280334,2732303,0,4,0
1582558280435,2731290,0,4,0
1582558280534,2728762,0,4,0
1582558280635,2727165,0,4,0
1582558280735,2726079,0,4,0
1582558280835,2724996,0,4,0
1582558280935,2724555,0,4,0
1582558281035,2724632,0,4,0
1582558281135,2724811,0,4,0
1582558281235,2723910,0,4,0
1582558281335,2721643,0,4,0
1582558281436,2720556,0,4,0
1582558281536,2719897,0,4,0
1582558281636,2719367,0,4,0
1582558281736,2719276,0,4,0
1582558281836,2719742,0,4,0
1582558281936,2720320,0,4,0
1582558282035,2720838,0,4,0
1582558282135,2718939,0,4,0
1582558282246,2716983,0,4,0
1582558282336,2716748,0,4,0
1582558282446,2716468,0,4,0
1582558282546,2718513,0,4,0
1582558282646,2719094,0,4,0
1582558282746,2719462,0,4,0
1582558282846,2718805,0,4,0
1582558282946,2718019,0,4,0
1582558283046,2717172,0,4,0
1582558283146,2717720,0,4,0
1582558283246,2718904,0,4,0
1582558283347,2719894,0,4,0
1582558283447,2721162,0,4,0
1582558283547,2722291,0,4,0
1582558283647,2723605,0,4,0
1582558283747,2724976,0,4,0
1582558283847,2724432,0,4,0
1582558283947,2722237,0,4,0
1582558284047,2721308,0,4,0
1582558284147,2720778,0,4,0
1582558284247,2720141,0,4,0
1582558284347,2720168,0,4,0
1582558284447,2720801,0,4,0
1582558284548,2721449,0,4,0
1582558284648,2720730,0,4,0
1582558284748,2718306,0,4,0
1582558284848,2717222,0,4,0
1582558284948,2716629,0,4,0
1582558285048,2716390,0,4,0
1582558285148,2716623,0,4,0
1582558285248,2717572,0,4,0
1582558285348,2718458,0,4,0
1582558285448,2719551,0,4,0
1582558285549,2718177,0,4,0
1582558285648,2716943,0,4,0
1582558285738,2717100,0,4,0
1582558285838,2717425,0,4,0
1582558285938,2718045,0,4,0
1582558286038,2719108,0,4,0
1582558286139,2720266,0,4,0
1582558286238,2721584,0,4,0
1582558286349,2722282,0,4,0
1582558286449,2720659,0,4,0
1582558286549,2720200,0,4,0
1582558286650,2720355,0,4,0
1582558286749,2720412,0,4,0
1582558286849,2720731,0,4,0
1582558286949,2721392,0,4,0
1582558287049,2722224,0,4,0
1582558287149,2722973,0,4,0
1582558287249,2722561,0,4,0
1582558287350,2721015,0,4,0
1582558287449,2720825,0,4,0
1582558287553,2721048,0,4,0
1582558287640,2721395,0,4,0
1582558287741,2722084,0,4,0
1582558287841,2722923,0,4,0
1582558287941,2723922,0,4,0
1582558288041,2721821,2,4,b
1582558288140,2719834,2,4,b
1582558288241,2719210,2,4,b
1582558288340,2719175,2,4,b
1582558288441,2719718,2,4,b
1582558288540,2720344,2,4,b
1582558288640,2721251,2,4,b
1582558288740,2722037,2,4,b
1582558288840,2722356,2,4,b
1582558288940,2720755,2,4,b
1582558289040,2719971,2,4,b
1582558289140,2719825,2,4,b
1582558289240,2720011,2,4,b
1582558289351,2720162,2,4,b
1582558289451,2721256,2,4,b
1582558289551,2722234,2,4,b
1582558289651,2723501,2,4,b
1582558289751,2723245,2,4,b
1582558289851,2722205,2,4,b
1582558289951,2722410,2,4,b
1582558290051,2722703,2,4,b
1582558290151,2722951,2,4,b
1582558290251,2723702,2,4,b
1582558290351,2724943,2,4,b
1582558290451,2725692,2,4,b
1582558290551,2725855,2,4,b
1582558290652,2725230,2,4,b
1582558290741,2722524,2,4,b
1582558290841,2720503,2,4,b
1582558290941,2718890,2,4,b
1582558291041,2716763,2,4,b
1582558291142,2713906,2,4,b
1582558291242,2714648,2,4,b
1582558291342,2718987,2,4,b
1582558291442,2723195,2,4,b
1582558291542,2727188,2,4,b
1582558291642,2727978,2,4,b
1582558291742,2726857,2,4,b
1582558291842,2725705,2,4,b
1582558291942,2724496,2,4,b
1582558292042,2724003,2,4,b
1582558292142,2723790,2,4,b
1582558292242,2723498,2,4,b
1582558292353,2723305,2,4,b
1582558292453,2722007,2,4,b
1582558292553,2720085,2,4,b
1582558292653,2719736,2,4,b
1582558292753,2720140,2,4,b
1582558292853,2720037,2,4,b
1582558292953,2720298,2,4,b
1582558293053,2721162,2,4,b
1582558293153,2722321,2,4,b
1582558293253,2722824,2,4,b
1582558293354,2721565,2,4,b
1582558293454,2720707,2,4,b
1582558293554,2720633,2,4,b
1582558293654,2721141,2,4,b
1582558293754,2721642,2,4,b
1582558293844,2722251,2,4,b
1582558293944,2722796,2,4,b
1582558294044,2723316,2,4,b
1582558294144,2722527,2,4,b
1582558294244,2722540,2,4,b
1582558294344,2723328,2,4,b
1582558294444,2724003,2,4,b
1582558294544,2724158,2,4,b
1582558294644,2724616,2,4,b
1582558294744,2724997,2,4,b
1582558294844,2725158,2,4,b
1582558294944,2723989,2,4,b
1582558295044,2723383,2,4,b
1582558295144,2723449,2,4,b
1582558295244,2723739,2,4,b
1582558295347,2724057,2,4,b
1582558295445,2724425,2,4,b
1582558295545,2724871,2,4,b
1582558295645,2724492,2,4,b
1582558295745,2723608,2,4,b
1582558295845,2723531,2,4,b
1582558295945,2723777,2,4,b
1582558296045,2723840,2,4,b
1582558296145,2724122,2,4,b
1582558296245,2724756,2,4,b
1582558296345,2724150,2,4,b
1582558296445,2723378,2,4,b
1582558296545,2723166,2,4,b
1582558296646,2723068,2,4,b
1582558296746,2723269,2,4,b
1582558296845,2723671,2,4,b
1582558296946,2724394,2,4,b
1582558297046,2724091,2,4,b
1582558297146,2723185,2,4,b
1582558297246,2722757,2,4,b
1582558297346,2722810,2,4,b
1582558297446,2722978,2,4,b
1582558297546,2723262,2,4,b
1582558297646,2723670,2,4,b
1582558297746,2724108,2,4,b
1582558297846,2723319,2,4,b
1582558297946,2722724,2,4,b
1582558298058,2722718,2,4,b
1582558298157,2722536,2,4,b
1582558298257,2722699,2,4,b
1582558298357,2723737,2,4,b
1582558298457,2724476,2,4,b
1582558298557,2724936,2,4,b
1582558298657,2724686,2,4,b
1582558298757,2723722,2,4,b
1582558298857,2723216,2,4,b
1582558298957,2723157,2,4,b
1582558299057,2723142,2,4,b
1582558299157,2723447,2,4,b
1582558299258,2723946,2,4,b
1582558299358,2724502,2,4,b
1582558299458,2724733,2,4,b
1582558299558,2724054,2,4,b
1582558299658,2723708,2,4,b
1582558299758,2723769,2,4,b
1582558299858,2724225,2,4,b
1582558299958,2724587,2,4,b
1582558300058,2725302,2,4,b
1582558300158,2725968,2,4,b
1582558300258,2726676,2,4,b
1582558300358,2726206,2,4,b
1582558300458,2725660,2,4,b
1582558300559,2725630,2,4,b
1582558300658,2725681,2,4,b
1582558300748,2725786,2,4,b
1582558300848,2726191,2,4,b
1582558300948,2726918,2,4,b
1582558301048,2727225,2,4,b
1582558301148,2727012,2,4,b
1582558301248,2726052,2,4,b
1582558301349,2725579,2,4,b
1582558301449,2725378,2,4,b
1582558301549,2725280,2,4,b
1582558301649,2725421,2,4,b
1582558301749,2725753,2,4,b
1582558301849,2726208,2,4,b
1582558301949,2726344,2,4,b
1582558302049,2725311,2,4,b
1582558302149,2724599,2,4,b
1582558302249,2724246,2,4,b
1582558302349,2723912,2,4,b
1582558302459,2723743,2,4,b
1582558302559,2723756,2,4,b
1582558302660,2724127,2,4,b
1582558302760,2723802,2,4,b
1582558302860,2722391,2,4,b
1582558302960,2721705,2,4,b
1582558303060,2721442,2,4,b
1582558303160,2720971,2,4,b
1582558303260,2720897,2,4,b
1582558303360,2721115,2,4,b
1582558303460,2721553,2,4,b
1582558303560,2721081,2,4,b
1582558303660,2719529,2,4,b
1582558303760,2718671,2,4,b
1582558303860,2718145,2,4,b
1582558303960,2717705,2,4,b
1582558304061,2717724,2,4,b
1582558304161,2718016,2,4,b
1582558304260,2718343,2,4,b
1582558304359,2718560,2,4,b
1582558304459,2717127,2,4,b
1582558304559,2715975,2,4,b
1582558304659,2715352,2,4,b
1582558304759,2715022,2,4,b
1582558304860,2714747,2,4,b
1582558304960,2715047,2,4,b
1582558305060,2715391,2,4,b
1582558305160,2715977,2,4,b
1582558305260,2715380,2,4,b
1582558305360,2714023,2,4,b
1582558305460,2713514,2,4,b
1582558305560,2713278,2,4,b
1582558305660,2713101,2,4,b
1582558305750,2713240,2,4,b
1582558305850,2713708,2,4,b
1582558305950,2714263,2,4,b
1582558306050,2714080,2,4,b
1582558306150,2712557,2,4,b
1582558306250,2711903,2,4,b
1582558306350,2711769,2,4,b
1582558306450,2711618,2,4,b
1582558306550,2711786,2,4,b
1582558306651,2712395,2,4,b
1582558306751,2713081,2,4,b
1582558306851,2713727,2,4,b
1582558306951,2712647,2,4,b
1582558307051,2711361,2,4,b
1582558307151,2711007,2,4,b
1582558307251,2710755,2,4,b
1582558307351,2710837,2,4,b
1582558307451,2711396,2,4,b
1582558307551,2712059,2,4,b
1582558307651,2712952,2,4,b
1582558307751,2713546,2,4,b
1582558307851,2712036,2,4,b
1582558307951,2711219,2,4,b
1582558308051,2711091,2,4,b
1582558308151,2710975,2,4,b
1582558308262,2711253,2,4,b
1582558308362,2711830,2,4,b
1582558308462,2712760,2,4,b
1582558308562,2713607,2,4,b
1582558308662,2713978,2,4,b
1582558308762,2712666,2,4,b
1582558308862,2712224,2,4,b
1582558308962,2712144,2,4,b
1582558309062,2712432,2,4,b
1582558309162,2712716,2,4,b
1582558309263,2713407,2,4,b
1582558309363,2714414,2,4,b
1582558309463,2715230,2,4,b
1582558309563,2714629,2,4,b
1582558309663,2714031,2,4,b
1582558309763,2714035,2,4,b
1582558309863,2714309,2,4,b
1582558309963,2715064,2,4,b
1582558310064,2716019,2,4,b
1582558310163,2716608,2,4,b
1582558310263,2717205,2,4,b
1582558310363,2717533,2,4,b
1582558310463,2716165,2,4,b
1582558310563,2715487,2,4,b
1582558310663,2715551,2,4,b
1582558310754,2715391,2,4,b
1582558310853,2715392,2,4,b
1582558310953,2715920,2,4,b
1582558311054,2716598,2,4,b
1582558311154,2717265,2,4,b
1582558311254,2717219,2,4,b
1582558311356,2715934,2,4,b
1582558311454,2715631,2,4,b
1582558311555,2715909,2,4,b
1582558311656,2716122,2,4,b
1582558311754,2716605,2,4,b
1582558311865,2717417,2,4,b
1582558311954,2718268,2,4,b
1582558312054,2719385,0,4,0
1582558312154,2719825,0,4,0
1582558312255,2719999,0,4,0
1582558312354,2721340,0,4,0
1582558312454,2722501,0,4,0
1582558312555,2723198,0,4,0
1582558312655,2724122,0,4,0
1582558312755,2725155,0,4,0
1582558312855,2726123,0,4,0
1582558312955,2725908,0,4,0
1582558313055,2725377,0,4,0
1582558313155,2725294,0,4,0
1582558313255,2725657,0,4,0
1582558313355,2725822,0,4,0
1582558313455,2726337,0,4,0
1582558313565,2726862,0,4,0
1582558313666,2727773,0,4,0
1582558313766,2728138,0,4,0
1582558313866,2727191,0,4,0
1582558313966,2726964,0,4,0
1582558314066,2726906,0,4,0
1582558314155,2727028,0,4,0
1582558314266,2727335,0,4,0
1582558314366,2727948,0,4,0
1582558314466,2728611,0,4,0
1582558314567,2729370,0,4,0
1582558314666,2729283,0,4,0
1582558314766,2728307,0,4,0
1582558314866,2727662,0,4,0
1582558314966,2727181,0,4,0
1582558315066,2726934,0,4,0
1582558315166,2726799,0,4,0
1582558315267,2727075,0,4,0
1582558315367,2727259,0,4,0
1582558315466,2727631,0,4,0
1582558315567,2727138,0,4,0
1582558315667,2726213,0,4,0
1582558315757,2725735,0,4,0
1582558315857,2725531,0,4,0
1582558315957,2725414,0,4,0
1582558316057,2725542,0,4,0
1582558316167,2725882,0,4,0
1582558316267,2726388,0,4,0
1582558316367,2726610,0,4,0
1582558316467,2725323,0,4,0
1582558316568,2724712,0,4,0
1582558316667,2724450,0,4,0
1582558316768,2724190,0,4,0
1582558316868,2724171,0,4,0
1582558316968,2724554,0,4,0
1582558317068,2725098,0,4,0
1582558317168,2725565,0,4,0
1582558317268,2725146,0,4,0
1582558317369,2724296,0,4,0
1582558317468,2723617,0,4,0
1582558317568,2723366,0,4,0
1582558317668,2723294,0,4,0
1582558317768,2723209,0,4,0
1582558317868,2723616,0,4,0
1582558317970,2724175,0,4,0
1582558318068,2724672,0,4,0
1582558318168,2724035,0,4,0
1582558318268,2723417,0,4,0
1582558318369,2723166,0,4,0
1582558318469,2723195,0,4,0
1582558318569,2723167,0,4,0
1582558318669,2723494,0,4,0
1582558318769,2724064,0,4,0
1582558318869,2724685,0,4,0
1582558318969,2724957,0,4,0
1582558319069,2724245,0,4,0
1582558319169,2723504,0,4,0
1582558319269,2723318,0,4,0
1582558319369,2723191,0,4,0
1582558319469,2723126,0,4,0
1582558319570,2723662,0,4,0
1582558319670,2724226,0,4,0
1582558319770,2724590,0,4,0
1582558319870,2723858,0,4,0
1582558319970,2722808,0,4,0
1582558320070,2722584,0,4,0
1582558320170,2722320,0,4,0
1582558320270,2722245,0,4,0
1582558320370,2722562,0,4,0
1582558320470,2723092,0,4,0
1582558320570,2723477,0,4,0
1582558320670,2723795,0,4,0
1582558320762,2722624,0,4,0
1582558320861,2721539,0,4,0
1582558320961,2721096,0,4,0
1582558321061,2720659,0,4,0
1582558321161,2720826,0,4,0
1582558321261,2721167,0,4,0
1582558321361,2721558,0,4,0
1582558321461,2721703,0,4,0
1582558321561,2720497,0,4,0
1582558321661,2719190,0,4,0
1582558321761,2718752,0,4,0
1582558321861,2718307,0,4,0
1582558321961,2718023,0,4,0
1582558322061,2718162,0,4,0
1582558322161,2718447,0,4,0
1582558322261,2718800,0,4,0
1582558322371,2718234,0,4,0
1582558322471,2716888,0,4,0
1582558322572,2716220,0,4,0
1582558322671,2715823,0,4,0
1582558322772,2715468,0,4,0
1582558322871,2715710,0,4,0
1582558322972,2716018,0,4,0
1582558323072,2716460,0,4,0
1582558323172,2715720,0,4,0
1582558323272,2714423,0,4,0
1582558323372,2713883,0,4,0
1582558323472,2713754,0,4,0
1582558323572,2713515,0,4,0
1582558323672,2713768,0,4,0
1582558323772,2714301,0,4,0
1582558323872,2714826,0,4,0
1582558323972,2715067,0,4,0
1582558324072,2713708,0,4,0
1582558324172,2713017,0,4,0
1582558324273,2712685,0,4,0
1582558324373,2712625,0,4,0
1582558324473,2712714,0,4,0
1582558324573,2713125,0,4,0
1582558324673,2713631,0,4,0
1582558324773,2714243,0,4,0
1582558324873,2713642,0,4,0
1582558324963,2712704,0,4,0
1582558325063,2712545,0,4,0
1582558325163,2712441,0,4,0
1582558325263,2712340,0,4,0
1582558325363,2712781,0,4,0
1582558325463,2713468,0,4,0
1582558325563,2713959,0,4,0
1582558325663,2714511,0,4,0
1582558325764,2713686,0,4,0
1582558325863,2713281,0,4,0
1582558325963,2713242,0,4,0
1582558326064,2713455,0,4,0
1582558326164,2713783,0,4,0
1582558326264,2714299,0,4,0
1582558326364,2715157,0,4,0
1582558326464,2715893,0,4,0
1582558326564,2715264,0,4,0
1582558326665,2714840,0,4,0
1582558326764,2714647,0,4,0
1582558326864,2714623,0,4,0
1582558326964,2714957,0,4,0
1582558327064,2715551,0,4,0
1582558327164,2716179,0,4,0
1582558327265,2717084,0,4,0
1582558327366,2717601,0,4,0
1582558327464,2716714,0,4,0
1582558327567,2716567,0,4,0
1582558327665,2716772,0,4,0
1582558327765,2718546,0,4,0
1582558327866,2721282,0,4,0
1582558327976,2721604,0,4,0
1582558328077,2721099,0,4,0
1582558328176,2720281,0,4,0
1582558328276,2719499,0,4,0
1582558328376,2720206,0,4,0
1582558328476,2721845,0,4,0
1582558328576,2723106,0,4,0
1582558328676,2724236,0,4,0
1582558328776,2725618,0,4,0
1582558328877,2727012,0,4,0
1582558328977,2728323,0,4,0
1582558329077,2729334,0,4,0
1582558329177,2728942,0,4,0
1582558329278,2728770,0,4,0
1582558329378,2729287,0,4,0
1582558329478,2729565,0,4,0
1582558329578,2729996,0,4,0
1582558329678,2730474,0,4,0
1582558329778,2731525,0,4,0
1582558329877,2731928,0,4,0
1582558329978,2731387,0,4,0
1582558330078,2731491,0,4,0
1582558330178,2732008,0,4,0
1582558330278,2732176,0,4,0
1582558330378,2732998,0,4,0
1582558330478,2734164,0,4,0
1582558330578,2735262,0,4,0
1582558330678,2735326,0,4,0
1582558330768,2734080,0,4,0
1582558330868,2733638,0,4,0
1582558330968,2733448,0,4,0
1582558331068,2733370,0,4,0
1582558331168,2733890,0,4,0
1582558331268,2734629,0,4,0
1582558331369,2735575,0,4,0
1582558331469,2736137,0,4,0
1582558331569,2735189,0,4,0
1582558331669,2734342,0,4,0
1582558331769,2734143,0,4,0
1582558331869,2733893,0,4,0
1582558331969,2734186,0,4,0
1582558332069,2734882,0,4,0
1582558332169,2734402,0,4,0
1582558332269,2732018,0,4,0
1582558332369,2728199,0,4,0
1582558332479,2721145,0,4,0
1582558332579,2713373,0,4,0
1582558332680,2708325,0,4,0
1582558332780,2703145,0,4,0
1582558332880,2699901,0,4,0
1582558332980,2695386,0,4,0
1582558333080,2694441,0,4,0
1582558333180,2693064,0,4,0
1582558333280,2689549,0,4,0
1582558333380,2687024,0,4,0
1582558333480,2685716,0,4,0
1582558333581,2683964,0,4,0
1582558333680,2682348,0,4,0
1582558333780,2681508,0,4,0
1582558333880,2681251,0,4,0
1582558333980,2681720,0,4,0
1582558334082,2681157,0,4,0
1582558334181,2679723,0,4,0
1582558334281,2679004,0,4,0
1582558334381,2678912,0,4,0
1582558334481,2679004,0,4,0
1582558334581,2679529,0,4,0
1582558334681,2680458,0,4,0
1582558334781,2681355,0,4,0
1582558334881,2682206,0,4,0
1582558334981,2681181,0,4,0
1582558335081,2680283,0,4,0
1582558335181,2680577,0,4,0
1582558335281,2680683,0,4,0
1582558335382,2681019,0,4,0
1582558335481,2681730,0,4,0
1582558335582,2682714,0,4,0
1582558335683,2683486,0,4,0
1582558335772,2683200,0,4,0
1582558335872,2682652,0,4,0
1582558335972,2682748,0,4,0
1582558336072,2683097,0,4,0
1582558336172,2683568,0,4,0
1582558336272,2684348,0,4,0
1582558336372,2685299,0,4,0
1582558336472,2686225,0,4,0
1582558336572,2686142,0,4,0
1582558336672,2685900,0,4,0
1582558336772,2685881,0,4,0
1582558336873,2686276,0,4,0
1582558336972,2686625,0,4,0
1582558337072,2687183,0,4,0
1582558337172,2688161,0,4,0
1582558337272,2689079,0,4,0
1582558337373,2689799,0,4,0
1582558337483,2689631,0,4,0
1582558337583,2689509,0,4,0
1582558337683,2689780,0,4,0
1582558337783,2690054,0,4,0
1582558337883,2690316,0,4,0
1582558337983,2691046,0,4,0
1582558338083,2691782,0,4,0
1582558338183,2692537,0,4,0
1582558338283,2692976,0,4,0
1582558338384,2692472,0,4,0
1582558338484,2692423,0,4,0
1582558338584,2692759,0,4,0
1582558338684,2692969,0,4,0
1582558338784,2693340,0,4,0
1582558338874,2694010,0,4,0
1582558338984,2694709,0,4,0
1582558339084,2694275,0,4,0
1582558339184,2693166,0,4,0
1582558339284,2692116,0,4,0
1582558339386,2691379,0,4,0
1582558339484,2690923,0,4,0
1582558339585,2690571,0,4,0
1582558339684,2690609,0,4,0
1582558339784,2690666,0,4,0
1582558339885,2691100,0,4,0
1582558339985,2691136,0,4,0
1582558340086,2690452,0,4,0
1582558340185,2690170,0,4,0
1582558340285,2690149,0,4,0
1582558340385,2690375,0,4,0
1582558340485,2690668,0,4,0
1582558340585,2691721,0,4,0
1582558340685,2693607,0,4,0
1582558340775,2695857,0,4,0
1582558340875,2696662,0,4,0
1582558340975,2696469,0,4,0
1582558341075,2696372,0,4,0
1582558341175,2696959,0,4,0
1582558341275,2697922,0,4,0
1582558341375,2698808,0,4,0
1582558341476,2699504,0,4,0
1582558341575,2699990,0,4,0
1582558341676,2700811,0,4,0
1582558341776,2700975,0,4,0
1582558341876,2701189,0,4,0
1582558341976,2701280,0,4,0
1582558342076,2701225,0,4,0
1582558342176,2703907,0,4,0
1582558342276,2706476,0,4,0
1582558342386,2707793,0,4,0
1582558342486,2708222,0,4,0
1582558342586,2706953,0,4,0
1582558342688,2705922,0,4,0
1582558342786,2705278,0,4,0
1582558342886,2704767,0,4,0
1582558342986,2704292,0,4,0
1582558343086,2704203,0,4,0
1582558343187,2704221,0,4,0
1582558343286,2704194,0,4,0
1582558343387,2703445,0,4,0
1582558343487,2702286,0,4,0
1582558343587,2702243,0,4,0
1582558343687,2702516,0,4,0
1582558343787,2702819,0,4,0
1582558343887,2703348,0,4,0
1582558343977,2703931,0,4,0
1582558344077,2704237,0,4,0
1582558344177,2704151,0,4,0
1582558344277,2702629,0,4,0
1582558344377,2701047,0,4,0
1582558344477,2700426,0,4,0
1582558344577,2699727,0,4,0
1582558344677,2699392,0,4,0
1582558344777,2699326,0,4,0
1582558344878,2699423,0,4,0
1582558344978,2699582,0,4,0
1582558345078,2699546,0,4,0
1582558345178,2698140,0,4,0
1582558345278,2697458,0,4,0
1582558345378,2697384,0,4,0
1582558345488,2697386,0,4,0
1582558345588,2697949,0,4,0
1582558345688,2698648,0,4,0
1582558345778,2699778,0,4,0
1582558345878,2700564,0,4,0
1582558345978,2699756,0,4,0
1582558346079,2699526,0,4,0
1582558346179,2699490,0,4,0
1582558346278,2699440,0,4,0
1582558346379,2699418,0,4,0
1582558346479,2699984,0,4,0
1582558346579,2700572,0,4,0
1582558346679,2700909,0,4,0
1582558346779,2700205,0,4,0
1582558346879,2698346,0,4,0
1582558346979,2694066,0,4,0
1582558347079,2691806,0,4,0
1582558347179,2688806,0,4,0
1582558347279,2684405,0,4,0
1582558347379,2683440,0,4,0
1582558347489,2682571,0,4,0
1582558347593,2683018,0,4,0
1582558347680,2682210,0,4,0
1582558347779,2681626,0,4,0
1582558347880,2680341,0,4,0
1582558347980,2680058,0,4,0
1582558348080,2679799,0,4,0
1582558348180,2680534,0,4,0
1582558348280,2681413,0,4,0
1582558348380,2681674,0,4,0
1582558348480,2680627,0,4,0
1582558348580,2679062,0,4,0
1582558348680,2677767,0,4,0
1582558348780,2677187,0,4,0
1582558348880,2676782,0,4,0
1582558348980,2676729,0,4,0
1582558349080,2676800,0,4,0
1582558349180,2677158,0,4,0
1582558349280,2677052,0,4,0
1582558349391,2675823,0,4,0
1582558349491,2675110,0,4,0
1582558349591,2674782,0,4,0
1582558349691,2674948,0,4,0
1582558349791,2676908,0,4,0
1582558349891,2678998,0,4,0
1582558349991,2679893,0,4,0
1582558350091,2679674,0,4,0
1582558350191,2676467,0,4,0
1582558350291,2673288,0,4,0
1582558350391,2672895,0,4,0
1582558350491,2674649,0,4,0
1582558350591,2678256,0,4,0
1582558350692,2680476,0,4,0
1582558350782,2683164,0,4,0
1582558350881,2687272,0,4,0
1582558350982,2690906,0,4,0
1582558351082,2693091,0,4,0
1582558351182,2691408,0,4,0
1582558351282,2691204,0,4,0
1582558351382,2691540,0,4,0
1582558351482,2690689,0,4,0
1582558351582,2691952,0,4,0
1582558351683,2700137,0,4,0
1582558351782,2712221,0,4,0
1582558351882,2722583,0,4,0
1582558351982,2729975,0,4,0
1582558352083,2735353,0,4,0
1582558352183,2738941,0,4,0
1582558352282,2741431,0,4,0
1582558352383,2743787,0,4,0
1582558352493,2747194,0,4,0
1582558352593,2750576,0,4,0
1582558352693,2753568,0,4,0
1582558352793,2754152,0,4,0
1582558352893,2751003,0,4,0
1582558352993,2747779,0,4,0
1582558353093,2747718,0,4,0
1582558353193,2743969,0,4,0
1582558353293,2740296,0,4,0
1582558353394,2738087,0,4,0
1582558353494,2736690,0,4,0
1582558353594,2737966,0,4,0
1582558353684,2737200,0,4,0
1582558353794,2734997,0,4,0
1582558353884,2732860,0,4,0
1582558353994,2730636,0,4,0
1582558354094,2729212,0,4,0
1582558354185,2727847,0,4,0
1582558354296,2726244,0,4,0
1582558354395,2725111,0,4,0
1582558354495,2722930,0,4,0
1582558354595,2721110,0,4,0
1582558354695,2719380,0,4,0
1582558354795,2717625,0,4,0
1582558354895,2716090,0,4,0
1582558354985,2715032,0,4,0
1582558355084,2714441,0,4,0
1582558355185,2713396,0,4,0
1582558355285,2710946,0,4,0
1582558355388,2709538,0,4,0
1582558355485,2708495,0,4,0
1582558355585,2706912,0,4,0
1582558355685,2705283,0,4,0
1582558355785,2703968,0,4,0
1582558355885,2702182,0,4,0
1582558355985,2700437,0,4,0
1582558356085,2697779,0,4,0
1582558356185,2695170,0,4,0
1582558356285,2693062,0,4,0
1582558356387,2691339,0,4,0
1582558356485,2689425,0,4,0
1582558356585,2687952,0,4,0
1582558356686,2686940,0,4,0
1582558356786,2685932,0,4,0
1582558356885,2684997,0,4,0
1582558356986,2682759,0,4,0
1582558357086,2680874,0,4,0
1582558357187,2679662,0,4,0
1582558357286,2678648,0,4,0
1582558357386,2677840,0,4,0
1582558357486,2677476,0,4,0
1582558357586,2677097,0,4,0
1582558357686,2676978,0,4,0
1582558357786,2676766,0,4,0
1582558357886,2675348,0,4,0
1582558357986,2674415,0,4,0
1582558358086,2674087,0,4,0
1582558358187,2673803,0,4,0
1582558358286,2673815,0,4,0
1582558358387,2674345,0,4,0
1582558358487,2674915,0,4,0
1582558358587,2675330,0,4,0
1582558358687,2675184,0,4,0
1582558358787,2674807,0,4,0
1582558358887,2675231,0,4,0
1582558358987,2675363,0,4,0
1582558359087,2675622,0,4,0
1582558359187,2676096,0,4,0
1582558359288,2676597,0,4,0
1582558359398,2677210,0,4,0
1582558359498,2677298,0,4,0
1582558359598,2676926,0,4,0
1582558359698,2676798,0,4,0
1582558359798,2676901,0,4,0
1582558359898,2677070,0,4,0
1582558359998,2677392,0,4,0
1582558360098,2677860,0,4,0
1582558360198,2678403,0,4,0
1582558360298,2678294,0,4,0
1582558360398,2677806,0,4,0
1582558360498,2677317,0,4,0
1582558360598,2677043,0,4,0
1582558360698,2676852,0,4,0
1582558360788,2677348,0,4,0
1582558360888,2678497,0,4,0
1582558360988,2679931,0,4,0
1582558361088,2680615,0,4,0
1582558361188,2680728,0,4,0
1582558361288,2680936,0,4,0
1582558361389,2681347,0,4,0
1582558361489,2681553,0,4,0
1582558361589,2682061,0,4,0
1582558361689,2682349,0,4,0
1582558361789,2682984,0,4,0
1582558361889,2683144,0,4,0
1582558361989,2682737,0,4,0
1582558362089,2682799,0,4,0
1582558362189,2682999,0,4,0
1582558362289,2682986,0,4,0
1582558362389,2683239,0,4,0
1582558362489,2683740,0,4,0
1582558362589,2684297,0,4,0
1582558362700,2684079,0,4,0
1582558362800,2683693,0,4,0
1582558362900,2683677,0,4,0
1582558363000,2683752,0,4,0
1582558363100,2684090,0,4,0
1582558363200,2684513,0,4,0
1582558363300,2685067,0,4,0
1582558363400,2685821,0,4,0
1582558363500,2686203,0,4,0
1582558363601,2686085,0,4,0
1582558363700,2685855,0,4,0
1582558363800,2685913,0,4,0
1582558363901,2686041,0,4,0
1582558364001,2686218,0,4,0
1582558364102,2686571,0,4,0
1582558364200,2686897,0,4,0
1582558364299,2687345,0,4,0
1582558364399,2687553,0,4,0
1582558364499,2686954,0,4,0
1582558364599,2686618,0,4,0
1582558364699,2686298,0,4,0
1582558364800,2686073,0,4,0
1582558364900,2686000,0,4,0
1582558365000,2686048,0,4,0
1582558365100,2686387,0,4,0
1582558365200,2686583,0,4,0
1582558365300,2686025,0,4,0
1582558365400,2685304,0,4,0
1582558365500,2684977,0,4,0
1582558365600,2684574,0,4,0
1582558365690,2684316,0,4,0
1582558365790,2684443,0,4,0
1582558365890,2684520,0,4,0
1582558365990,2684920,0,4,0
1582558366090,2684877,0,4,0
1582558366190,2683886,0,4,0
1582558366290,2683381,0,4,0
1582558366390,2683065,0,4,0
1582558366491,2682817,0,4,0
1582558366591,2682882,0,4,0
1582558366691,2683272,0,4,0
1582558366791,2683385,0,4,0
1582558366891,2683826,0,4,0
1582558366991,2682998,0,4,0
1582558367091,2682428,0,4,0
1582558367191,2682039,0,4,0
1582558367291,2681842,0,4,0
1582558367391,2681677,0,4,0
1582558367491,2681723,0,4,0
1582558367591,2682089,0,4,0
1582558367692,2682438,0,4,0
1582558367791,2682317,0,4,0
1582558367891,2681421,0,4,0
1582558367991,2680892,0,4,0
1582558368092,2680716,0,4,0
1582558368191,2680628,0,4,0
1582558368302,2680580,0,4,0
1582558368402,2680819,0,4,0
1582558368502,2681211,0,4,0
1582558368602,2681101,0,4,0
1582558368702,2679934,0,4,0
1582558368802,2679666,0,4,0
1582558368902,2679339,0,4,0
1582558369002,2679292,0,4,0
1582558369102,2679242,0,4,0
1582558369202,2679556,0,4,0
1582558369303,2679776,0,4,0
1582558369403,2678767,0,4,0
1582558369502,2677859,0,4,0
1582558369603,2677608,0,4,0
1582558369703,2677244,0,4,0
1582558369803,2677277,0,4,0
1582558369903,2677475,0,4,0
1582558370003,2677831,0,4,0
1582558370104,2677294,0,4,0
1582558370203,2676213,0,4,0
1582558370303,2675746,0,4,0
1582558370404,2675545,0,4,0
1582558370503,2675612,0,4,0
1582558370603,2675894,0,4,0
1582558370694,2676426,0,4,0
1582558370794,2676188,0,4,0
1582558370893,2675042,0,4,0
1582558370994,2674721,0,4,0
1582558371094,2674334,0,4,0
1582558371194,2674162,0,4,0
1582558371294,2674263,0,4,0
1582558371396,2674573,0,4,0
1582558371494,2673870,0,4,0
1582558371607,2672885,0,4,0
1582558371695,2672525,0,4,0
1582558371794,2672536,0,4,0
1582558371904,2672691,0,4,0
1582558371994,2673112,0,4,0
1582558372094,2673500,0,4,0
1582558372196,2673455,0,4,0
1582558372295,2672714,0,4,0
1582558372394,2672472,0,4,0
1582558372505,2672506,0,4,0
1582558372605,2672788,0,4,0
1582558372705,2673290,0,4,0
1582558372805,2673699,0,4,0
1582558372905,2674397,0,4,0
1582558373005,2674201,0,4,0
1582558373105,2673884,0,4,0
1582558373205,2674106,0,4,0
1582558373305,2674264,0,4,0
1582558373406,2674722,0,4,0
1582558373506,2675348,0,4,0
1582558373605,2676103,0,4,0
1582558373706,2676380,0,4,0
1582558373806,2676137,0,4,0
1582558373906,2676105,0,4,0
1582558374006,2676506,0,4,0
1582558374106,2676930,0,4,0
1582558374206,2677305,0,4,0
1582558374306,2678021,0,4,0
1582558374406,2678671,0,4,0
1582558374506,2678860,0,4,0
1582558374607,2678553,0,4,0
1582558374706,2678550,0,4,0
1582558374806,2678778,0,4,0
1582558374906,2679185,0,4,0
1582558375006,2679728,0,4,0
1582558375106,2680279,0,4,0
1582558375206,2680948,0,4,0
1582558375307,2681856,0,4,0
1582558375407,2681754,0,4,0
1582558375506,2681517,0,4,0
1582558375607,2681683,0,4,0
1582558375697,2682012,0,4,0
1582558375797,2682050,0,4,0
1582558375897,2682636,0,4,0
1582558375997,2683152,0,4,0
1582558376097,2683586,0,4,0
1582558376197,2684186,0,4,0
1582558376297,2684103,0,4,0
1582558376397,2683758,0,4,0
1582558376497,2683913,0,4,0
1582558376597,2683864,0,4,0
1582558376698,2683804,0,4,0
1582558376798,2683915,0,4,0
1582558376897,2684343,0,4,0
1582558376998,2684702,0,4,0
1582558377098,2685123,2,4,b
1582558377198,2685080,2,4,b
1582558377298,2684696,2,4,b
1582558377398,2684428,2,4,b
1582558377508,2684459,2,4,b
1582558377608,2684320,2,4,b
1582558377708,2684718,2,4,b
1582558377808,2684979,2,4,b
1582558377908,2685428,2,4,b
1582558378008,2685773,2,4,b
1582558378108,2685835,2,4,b
1582558378208,2685661,2,4,b
1582558378309,2685614,2,4,b
1582558378408,2685603,2,4,b
1582558378509,2685744,2,4,b
1582558378609,2686042,2,4,b
1582558378709,2686296,2,4,b
1582558378809,2686754,2,4,b
1582558378909,2687540,2,4,b
1582558379009,2687220,2,4,b
1582558379109,2687162,2,4,b
1582558379209,2687274,2,4,b
1582558379309,2687137,2,4,b
1582558379409,2687344,2,4,b
1582558379509,2687913,2,4,b
1582558379610,2688142,2,4,b
1582558379710,2688425,2,4,b
1582558379810,2687942,2,4,b
1582558379910,2687468,2,4,b
1582558380010,2687599,2,4,b
1582558380110,2687250,2,4,b
1582558380210,2687189,2,4,b
1582558380310,2687113,2,4,b
1582558380410,2687399,2,4,b
1582558380510,2687599,2,4,b
1582558380610,2687350,2,4,b
1582558380700,2686558,2,4,b
1582558380800,2686251,2,4,b
1582558380900,2686125,2,4,b
1582558381000,2686003,2,4,b
1582558381100,2686160,2,4,b
1582558381200,2686569,2,4,b
1582558381300,2687046,2,4,b
1582558381401,2686516,2,4,b
1582558381501,2685738,2,4,b
1582558381601,2685704,2,4,b
1582558381701,2685718,2,4,b
1582558381801,2685744,2,4,b
1582558381901,2686207,2,4,b
1582558382001,2686550,2,4,b
1582558382101,2687067,2,4,b
1582558382201,2686484,2,4,b
1582558382311,2685748,2,4,b
1582558382412,2685660,2,4,b
1582558382511,2685708,2,4,b
1582558382611,2685871,2,4,b
1582558382711,2686270,2,4,b
1582558382812,2686715,2,4,b
1582558382912,2687234,2,4,b
1582558383012,2686959,2,4,b
1582558383112,2686500,2,4,b
1582558383212,2686222,2,4,b
1582558383312,2686472,2,4,b
1582558383412,2686603,2,4,b
1582558383512,2687027,2,4,b
1582558383612,2687533,2,4,b
1582558383712,2688066,2,4,b
1582558383812,2688475,2,4,b
1582558383912,2687925,2,4,b
1582558384012,2687960,2,4,b
1582558384112,2688175,2,4,b
1582558384212,2688337,2,4,b
1582558384313,2688855,2,4,b
1582558384413,2689319,2,4,b
1582558384513,2689899,2,4,b
1582558384613,2690288,2,4,b
1582558384713,2690214,2,4,b
1582558384813,2690095,2,4,b
1582558384913,2690340,2,4,b
1582558385003,2690520,2,4,b
1582558385103,2690805,2,4,b
1582558385203,2691253,2,4,b
1582558385303,2691814,2,4,b
1582558385403,2692021,2,4,b
1582558385503,2691897,2,4,b
1582558385604,2691726,2,4,b
1582558385704,2691903,2,4,b
1582558385804,2692028,2,4,b
1582558385903,2692436,2,4,b
1582558386004,2692855,2,4,b
1582558386104,2693189,2,4,b
1582558386204,2693068,2,4,b
1582558386304,2692989,2,4,b
1582558386404,2693122,2,4,b
1582558386504,2693149,2,4,b
1582558386617,2693310,2,4,b
1582558386705,2693650,2,4,b
1582558386804,2693823,2,4,b
1582558386904,2693395,2,4,b
1582558387006,2693076,2,4,b
1582558387106,2693044,2,4,b
1582558387206,2693076,2,4,b
1582558387306,2693322,2,4,b
1582558387406,2693444,2,4,b
1582558387505,2694008,2,4,b
1582558387605,2693557,2,4,b
1582558387705,2693394,2,4,b
1582558387805,2693526,2,4,b
1582558387905,2693477,2,4,b
1582558388005,2693668,2,4,b
1582558388105,2694041,2,4,b
1582558388216,2694317,2,4,b
1582558388305,2694167,2,4,b
1582558388417,2693552,2,4,b
1582558388516,2693214,2,4,b
1582558388616,2692800,2,4,b
1582558388716,2692775,2,4,b
1582558388816,2693076,2,4,b
1582558388916,2693468,2,4,b
1582558389016,2693769,2,4,b
1582558389116,2693143,2,4,b
1582558389216,2692968,2,4,b
1582558389316,2692956,2,4,b
1582558389416,2692946,2,4,b
1582558389516,2693321,2,4,b
1582558389617,2693641,2,4,b
1582558389716,2694157,2,4,b
1582558389816,2693945,2,4,b
1582558389916,2693341,2,4,b
1582558390016,2692972,2,4,b
1582558390116,2692906,2,4,b
1582558390216,2692733,2,4,b
1582558390317,2692901,2,4,b
1582558390417,2693148,2,4,b
1582558390517,2693561,2,4,b
1582558390618,2693574,2,4,b
1582558390707,2692879,2,4,b
1582558390807,2692414,2,4,b
1582558390907,2692064,2,4,b
1582558391007,2691726,2,4,b
1582558391107,2691711,2,4,b
1582558391207,2691472,2,4,b
1582558391307,2691864,2,4,b
1582558391408,2692479,2,4,b
1582558391508,2692320,2,4,b
1582558391607,2691744,2,4,b
1582558391708,2691374,2,4,b
1582558391808,2691144,2,4,b
1582558391907,2690807,2,4,b
1582558392008,2690907,2,4,b
1582558392108,2691194,2,4,b
1582558392208,2691457,2,4,b
1582558392319,2691148,2,4,b
1582558392419,2690105,2,4,b
1582558392519,2689901,2,4,b
1582558392619,2689787,2,4,b
1582558392719,2689633,2,4,b
1582558392819,2689656,2,4,b
1582558392919,2690216,2,4,b
1582558393019,2690569,2,4,b
1582558393119,2689804,2,4,b
1582558393219,2689544,2,4,b
1582558393319,2689421,2,4,b
1582558393421,2689158,2,4,b
1582558393521,2689116,2,4,b
1582558393621,2689346,2,4,b
1582558393720,2689693,2,4,b
1582558393820,2689174,2,4,b
1582558393921,2688416,2,4,b
1582558394021,2688033,2,4,b
1582558394122,2688035,2,4,b
1582558394221,2687946,2,4,b
1582558394320,2688050,2,4,b
1582558394421,2688496,2,4,b
1582558394521,2688448,2,4,b
1582558394621,2687443,2,4,b
1582558394721,2686949,2,4,b
1582558394823,2686772,2,4,b
1582558394921,2686660,2,4,b
1582558395021,2686863,2,4,b
1582558395121,2687223,2,4,b
1582558395221,2687595,2,4,b
1582558395321,2687639,2,4,b
1582558395422,2686757,2,4,b
1582558395521,2686399,2,4,b
1582558395622,2686324,2,4,b
1582558395713,2686102,2,4,b
1582558395812,2686203,2,4,b
1582558395912,2686783,2,4,b
1582558396012,2687149,2,4,b
1582558396112,2687610,2,4,b
1582558396212,2687605,2,4,b
1582558396311,2686987,2,4,b
1582558396412,2686745,2,4,b
1582558396512,2686869,2,4,b
1582558396612,2686747,2,4,b
1582558396713,2686908,2,4,b
1582558396812,2687304,2,4,b
1582558396912,2687782,2,4,b
1582558397012,2688280,2,4,b
1582558397112,2688603,2,4,b
1582558397223,2688232,2,4,b
1582558397322,2687936,2,4,b
1582558397423,2688067,2,4,b
1582558397523,2688166,2,4,b
1582558397623,2688569,2,4,b
1582558397723,2689008,2,4,b
1582558397823,2689600,2,4,b
1582558397923,2690059,2,4,b
1582558398023,2690131,2,4,b
1582558398123,2689720,2,4,b
1582558398223,2689733,2,4,b
1582558398323,2689627,2,4,b
1582558398424,2689788,2,4,b
1582558398524,2690100,2,4,b
1582558398624,2690411,2,4,b
1582558398714,2690895,2,4,b
1582558398824,2691515,2,4,b
1582558398914,2691620,2,4,b
1582558399024,2691313,2,4,b
1582558399124,2691337,2,4,b
1582558399225,2691540,2,4,b
1582558399324,2691390,2,4,b
1582558399424,2691879,2,4,b
1582558399523,2692182,2,4,b
1582558399623,2692766,2,4,b
1582558399723,2693115,2,4,b
1582558399823,2693059,2,4,b
1582558399923,2692441,2,4,b
1582558400023,2692064,0,4,0
1582558400124,2692152,0,4,0
1582558400224,2692127,0,4,0
1582558400323,2692184,0,4,0
1582558400424,2692464,0,4,0
1582558400523,2692773,0,4,0
1582558400624,2693140,0,4,0
1582558400714,2692875,0,4,0
1582558400814,2692442,0,4,0
1582558400914,2692321,0,4,0
1582558401014,2692273,0,4,0
1582558401114,2692301,0,4,0
1582558401214,2692427,0,4,0
1582558401314,2692875,0,4,0
1582558401416,2693314,0,4,0
1582558401514,2693534,0,4,0
1582558401615,2692918,0,4,0
1582558401715,2692538,0,4,0
1582558401814,2692638,0,4,0
1582558401914,2692439,0,4,0
1582558402014,2692481,0,4,0
1582558402114,2692670,0,4,0
1582558402215,2693054,0,4,0
1582558402325,2693413,0,4,0
1582558402425,2692742,0,4,0
1582558402525,2691892,0,4,0
1582558402615,2691390,0,4,0
1582558402715,2690853,0,4,0
1582558402815,2690454,0,4,0
1582558402925,2690397,0,4,0
1582558403025,2690458,0,4,0
1582558403125,2690586,0,4,0
1582558403225,2690244,0,4,0
1582558403325,2688626,0,4,0
1582558403426,2687547,0,4,0
1582558403526,2686617,0,4,0
1582558403625,2685719,0,4,0
1582558403726,2685239,0,4,0
1582558403826,2685099,0,4,0
1582558403926,2685194,0,4,0
1582558404026,2685227,0,4,0
1582558404126,2683632,0,4,0
1582558404226,2681747,0,4,0
1582558404326,2680921,0,4,0
1582558404426,2680036,0,4,0
1582558404526,2679234,0,4,0
1582558404627,2679050,0,4,0
1582558404726,2679140,0,4,0
1582558404827,2678967,0,4,0
1582558404926,2678276,0,4,0
1582558405026,2675926,0,4,0
1582558405126,2674827,0,4,0
1582558405226,2674028,0,4,0
1582558405327,2673282,0,4,0
1582558405429,2673061,0,4,0
1582558405517,2672966,0,4,0
1582558405627,2673244,0,4,0
1582558405717,2672866,0,4,0
1582558405817,2670630,0,4,0
1582558405917,2669068,0,4,0
1582558406017,2668532,0,4,0
1582558406117,2667968,0,4,0
1582558406217,2667875,0,4,0
1582558406317,2668365,0,4,0
1582558406417,2668820,0,4,0
1582558406517,2669237,0,4,0
1582558406617,2668335,0,4,0
1582558406718,2666346,0,4,0
1582558406818,2665743,0,4,0
1582558406917,2665469,0,4,0
1582558407018,2665283,2,4,b
1582558407118,2665569,2,4,b
1582558407218,2666238,2,4,b
1582558407328,2666867,2,4,b
1582558407428,2667529,2,4,b
1582558407528,2666497,2,4,b
1582558407632,2665192,2,4,b
1582558407718,2664946,2,4,b
1582558407818,2665061,2,4,b
1582558407918,2665272,2,4,b
1582558408018,2665955,2,4,b
1582558408118,2666785,2,4,b
1582558408218,2667675,2,4,b
1582558408318,2668451,2,4,b
1582558408419,2667891,2,4,b
1582558408519,2667026,2,4,b
1582558408619,2667169,2,4,b
1582558408719,2667384,2,4,b
1582558408819,2667712,2,4,b
1582558408919,2668417,2,4,b
1582558409019,2669172,2,4,b
1582558409119,2670021,2,4,b
1582558409219,2670877,2,4,b
1582558409319,2670525,2,4,b
1582558409430,2670190,2,4,b
1582558409529,2670696,2,4,b
1582558409630,2669900,2,4,b
1582558409730,2668700,2,4,b
1582558409830,2668896,2,4,b
1582558409930,2682204,2,4,b
1582558410030,2692787,2,4,b
1582558410130,2697902,2,4,b
1582558410231,2704372,2,4,b
1582558410331,2710314,2,4,b
1582558410431,2710503,2,4,b
1582558410531,2712712,2,4,b
1582558410631,2716266,2,4,b
1582558410722,2721227,2,4,b
1582558410822,2725490,2,4,b
1582558410921,2729376,2,4,b
1582558411022,2732639,2,4,b
1582558411122,2735090,2,4,b
1582558411222,2737771,2,4,b
1582558411322,2740317,2,4,b
1582558411422,2742792,2,4,b
1582558411533,2745096,2,4,b
1582558411622,2747202,2,4,b
1582558411733,2749256,2,4,b
1582558411833,2750413,2,4,b
1582558411933,2751179,2,4,b
1582558412033,2752034,2,4,b
1582558412134,2753109,2,4,b
1582558412233,2754132,2,4,b
1582558412333,2755160,2,4,b
1582558412433,2756401,2,4,b
1582558412533,2757533,2,4,b
1582558412633,2759069,2,4,b
1582558412733,2758734,2,4,b
1582558412833,2757741,2,4,b
1582558412933,2756667,2,4,b
1582558413033,2755568,2,4,b
1582558413133,2755409,2,4,b
1582558413233,2755679,2,4,b
1582558413334,2755821,2,4,b
1582558413434,2755669,2,4,b
1582558413534,2754409,2,4,b
1582558413634,2753449,2,4,b
1582558413734,2752518,2,4,b
1582558413834,2751410,2,4,b
1582558413934,2750505,2,4,b
1582558414034,2749935,2,4,b
1582558414134,2749559,2,4,b
1582558414234,2748519,2,4,b
1582558414334,2746453,2,4,b
1582558414434,2744776,2,4,b
1582558414534,2743668,2,4,b
1582558414635,2742298,2,4,b
1582558414735,2741451,2,4,b
1582558414834,2740866,2,4,b
1582558414925,2740513,2,4,b
1582558415024,2740237,2,4,b
1582558415125,2738229,2,4,b
1582558415225,2736685,2,4,b
1582558415325,2735732,2,4,b
1582558415427,2734967,2,4,b
1582558415525,2734480,2,4,b
1582558415625,2734348,2,4,b
1582558415725,2734477,2,4,b
1582558415825,2734682,2,4,b
1582558415925,2733635,2,4,b
1582558416025,2731700,2,4,b
1582558416125,2730759,2,4,b
1582558416225,2730081,2,4,b
1582558416325,2729419,2,4,b
1582558416425,2729231,2,4,b
1582558416525,2729491,2,4,b
1582558416631,2729930,2,4,b
1582558416726,2730679,2,4,b
1582558416826,2730336,2,4,b
1582558416926,2728936,2,4,b
1582558417026,2728497,2,4,b
1582558417126,2728427,2,4,b
1582558417226,2728324,2,4,b
1582558417326,2728989,2,4,b
1582558417426,2730172,2,4,b
1582558417526,2731179,2,4,b
1582558417626,2732355,2,4,b
1582558417726,2732229,2,4,b
1582558417826,2731204,2,4,b
1582558417927,2731195,2,4,b
1582558418027,2731512,2,4,b
1582558418127,2731721,2,4,b
1582558418227,2732495,2,4,b
1582558418337,2733421,2,4,b
1582558418437,2734357,2,4,b
1582558418537,2734652,2,4,b
1582558418637,2733155,2,4,b
1582558418737,2732688,2,4,b
1582558418837,2732726,2,4,b
1582558418937,2732963,2,4,b
1582558419037,2733675,2,4,b
1582558419137,2734582,2,4,b
1582558419237,2735677,2,4,b
1582558419338,2736593,2,4,b
1582558419438,2736365,2,4,b
1582558419537,2735308,2,4,b
1582558419639,2735202,2,4,b
1582558419739,2735205,2,4,b
1582558419839,2735048,2,4,b
1582558419939,2735347,2,4,b
1582558420039,2735360,2,4,b
1582558420139,2735084,2,4,b
1582558420239,2733403,2,4,b
1582558420339,2730669,2,4,b
1582558420439,2728810,2,4,b
1582558420538,2727833,2,4,b
1582558420638,2727215,2,4,b
1582558420728,2726833,2,4,b
1582558420828,2727003,2,4,b
1582558420928,2727163,2,4,b
1582558421028,2727415,2,4,b
1582558421128,2727029,2,4,b
1582558421229,2725605,2,4,b
1582558421329,2724800,2,4,b
1582558421429,2723652,2,4,b
1582558421529,2722050,2,4,b
1582558421629,2720820,2,4,b
1582558421729,2720693,2,4,b
1582558421829,2720412,2,4,b
1582558421929,2720037,2,4,b
1582558422029,2718097,2,4,b
1582558422129,2716722,2,4,b
1582558422229,2715976,2,4,b
1582558422329,2715139,2,4,b
1582558422429,2714295,2,4,b
1582558422529,2713365,2,4,b
1582558422629,2712551,2,4,b
1582558422730,2711849,2,4,b
1582558422830,2709914,2,4,b
1582558422930,2707917,2,4,b
1582558423030,2706591,2,4,b
1582558423130,2705163,2,4,b
1582558423230,2703969,2,4,b
1582558423330,2703211,2,4,b
1582558423430,2702765,2,4,b
1582558423540,2702421,2,4,b
1582558423641,2701513,2,4,b
1582558423740,2699136,2,4,b
1582558423840,2697485,2,4,b
1582558423941,2696547,2,4,b
1582558424041,2695589,2,4,b
1582558424142,2694954,2,4,b
1582558424241,2694742,2,4,b
1582558424341,2694751,2,4,b
1582558424441,2694941,2,4,b
1582558424541,2695031,2,4,b
1582558424641,2693716,2,4,b
1582558424741,2692875,2,4,b
1582558424841,2692314,2,4,b
1582558424941,2691848,2,4,b
1582558425041,2691513,2,4,b
1582558425141,2691809,2,4,b
1582558425241,2692353,2,4,b
1582558425341,2693256,2,4,b
1582558425442,2693398,2,4,b
1582558425541,2692302,2,4,b
1582558425642,2691648,2,4,b
1582558425732,2691465,2,4,b
1582558425832,2691048,2,4,b
1582558425932,2690955,2,4,b
1582558426032,2691066,2,4,b
1582558426132,2691213,2,4,b
1582558426232,2691055,2,4,b
1582558426332,2690207,2,4,b
1582558426432,2688862,2,4,b
1582558426532,2688220,2,4,b
1582558426632,2687758,2,4,b
1582558426732,2687580,2,4,b
1582558426832,2687420,2,4,b
1582558426932,2687716,2,4,b
1582558427032,2687859,0,4,0
1582558427132,2688115,0,4,0
1582558427233,2687241,0,4,0
1582558427333,2686514,0,4,0
1582558427433,2686448,0,4,0
1582558427533,2686216,0,4,0
1582558427633,2686233,0,4,0
1582558427733,2686508,0,4,0
1582558427833,2686759,0,4,0
1582558427933,2687503,0,4,0
1582558428033,2687584,0,4,0
1582558428133,2686460,0,4,0
1582558428233,2685933,0,4,0
1582558428333,2685717,0,4,0
1582558428444,2685463,0,4,0
1582558428544,2685343,0,4,0
1582558428644,2685617,0,4,0
1582558428744,2685807,0,4,0
1582558428844,2686394,0,4,0
1582558428944,2686329,0,4,0
1582558429044,2685257,0,4,0
1582558429144,2684865,0,4,0
1582558429244,2684759,0,4,0
1582558429344,2684450,0,4,0
1582558429445,2684406,0,4,0
1582558429544,2684825,0,4,0
1582558429646,2685149,0,4,0
1582558429745,2685538,0,4,0
1582558429845,2684955,0,4,0
1582558429945,2684241,0,4,0
1582558430045,2684068,0,4,0
1582558430146,2683987,0,4,0
1582558430245,2683929,0,4,0
1582558430345,2684132,0,4,0
1582558430445,2684706,0,4,0
1582558430546,2685229,0,4,0
1582558430644,2685431,0,4,0
1582558430734,2684629,0,4,0
1582558430834,2684338,0,4,0
1582558430934,2684296,0,4,0
1582558431034,2684362,0,4,0
1582558431134,2684627,0,4,0
1582558431234,2685213,0,4,0
1582558431334,2686012,0,4,0
1582558431436,2686578,0,4,0
1582558431535,2686535,0,4,0
1582558431636,2686644,0,4,0
1582558431735,2687894,0,4,0
1582558431834,2689593,0,4,0
1582558431934,2691083,0,4,0
1582558432035,2692285,0,4,0
1582558432134,2692758,0,4,0
1582558432235,2693025,0,4,0
1582558432335,2693076,0,4,0
1582558432435,2692434,0,4,0
1582558432545,2691354,0,4,0
1582558432645,2690822,0,4,0
1582558432745,2690407,0,4,0
1582558432845,2690304,0,4,0
1582558432945,2690605,0,4,0
1582558433045,2691144,0,4,0
1582558433145,2691922,0,4,0
1582558433247,2692708,0,4,0
1582558433345,2692909,0,4,0
1582558433446,2692641,0,4,0
1582558433546,2692980,0,4,0
1582558433645,2693398,0,4,0
1582558433746,2693965,0,4,0
1582558433846,2695435,0,4,0
1582558433946,2697468,0,4,0
1582558434046,2699842,0,4,0
1582558434146,2702129,0,4,0
1582558434246,2702928,0,4,0
1582558434346,2702718,0,4,0
1582558434446,2702076,0,4,0
1582558434546,2701571,0,4,0
1582558434647,2701328,0,4,0
1582558434746,2701226,0,4,0
1582558434846,2701474,0,4,0
1582558434946,2701791,0,4,0
1582558435047,2702117,0,4,0
1582558435146,2701402,0,4,0
1582558435247,2700707,0,4,0
1582558435347,2700455,0,4,0
1582558435447,2700573,0,4,0
1582558435547,2701455,0,4,0
1582558435647,2702972,0,4,0
1582558435737,2704347,0,4,0
1582558435837,2705512,0,4,0
1582558435937,2705824,0,4,0
1582558436037,2704483,0,4,0
1582558436137,2702839,0,4,0
1582558436237,2701869,0,4,0
1582558436337,2701198,0,4,0
1582558436437,2699237,0,4,0
1582558436537,2697220,0,4,0
1582558436637,2695080,0,4,0
1582558436738,2692322,0,4,0
1582558436838,2690159,0,4,0
1582558436937,2687825,0,4,0
1582558437038,2685697,0,4,0
1582558437148,2684549,0,4,0
1582558437248,2683583,0,4,0
1582558437348,2682959,0,4,0
1582558437448,2683034,0,4,0
1582558437548,2683069,0,4,0
1582558437648,2682939,0,4,0
1582558437748,2682436,0,4,0
1582558437848,2681357,0,4,0
1582558437948,2680434,0,4,0
1582558438049,2679982,0,4,0
1582558438148,2679457,0,4,0
1582558438249,2679399,0,4,0
1582558438349,2679701,0,4,0
1582558438449,2680074,0,4,0
1582558438550,2680289,0,4,0
1582558438650,2679908,0,4,0
1582558438750,2678832,0,4,0
1582558438850,2678101,0,4,0
1582558438950,2677272,0,4,0
1582558439050,2676425,0,4,0
1582558439150,2676316,0,4,0
1582558439250,2677380,0,4,0
1582558439350,2679548,0,4,0
1582558439450,2681790,0,4,0
1582558439550,2682507,0,4,0
1582558439641,2682993,0,4,0
1582558439741,2684016,0,4,0
1582558439841,2684841,0,4,0
1582558439941,2685688,0,4,0
1582558440041,2687151,0,4,0
1582558440141,2688421,0,4,0
1582558440241,2689096,0,4,0
1582558440341,2689606,0,4,0
1582558440442,2688612,0,4,0
1582558440541,2688188,0,4,0
1582558440641,2688380,0,4,0
1582558440742,2688411,0,4,0
1582558440842,2688762,0,4,0
1582558440942,2689445,0,4,0
1582558441042,2690234,0,4,0
1582558441142,2691105,0,4,0
1582558441242,2690594,0,4,0
1582558441342,2689696,0,4,0
1582558441442,2689731,0,4,0
1582558441541,2689825,0,4,0
1582558441643,2690022,0,4,0
1582558441743,2690358,0,4,0
1582558441842,2691059,0,4,0
1582558441942,2691865,0,4,0
1582558442043,2692415,0,4,0
1582558442143,2691668,0,4,0
1582558442243,2691508,0,4,0
1582558442353,2691834,0,4,0
1582558442453,2691809,0,4,0
1582558442552,2692077,0,4,0
1582558442653,2692853,0,4,0
1582558442753,2693950,0,4,0
1582558442853,2695081,0,4,0
1582558442953,2695738,0,4,0
1582558443053,2695299,0,4,0
1582558443153,2695255,0,4,0
1582558443254,2695569,0,4,0
1582558443354,2695846,0,4,0
1582558443454,2696396,0,4,0
1582558443553,2697148,0,4,0
1582558443654,2697987,0,4,0
1582558443754,2698741,0,4,0
1582558443854,2698896,0,4,0
1582558443954,2697970,0,4,0
1582558444054,2697702,0,4,0
1582558444156,2697799,0,4,0
1582558444254,2697826,0,4,0
1582558444354,2698241,0,4,0
1582558444454,2698733,0,4,0
1582558444554,2699611,0,4,0
1582558444655,2700297,0,4,0
1582558444754,2699553,0,4,0
1582558444855,2698910,0,4,0
1582558444955,2698773,0,4,0
1582558445055,2698617,0,4,0
1582558445145,2698839,0,4,0
1582558445245,2699276,0,4,0
1582558445345,2700026,0,4,0
1582558445445,2700703,0,4,0
1582558445544,2700470,0,4,0
1582558445645,2699066,0,4,0
1582558445745,2698641,0,4,0
1582558445845,2698539,0,4,0
1582558445945,2698185,0,4,0
1582558446045,2698386,0,4,0
1582558446145,2698867,0,4,0
1582558446245,2699439,0,4,0
1582558446345,2699732,0,4,0
1582558446446,2698115,0,4,0
1582558446545,2696888,0,4,0
1582558446653,2696433,0,4,0
1582558446746,2695961,0,4,0
1582558446846,2695821,0,4,0
1582558446946,2696285,0,4,0
1582558447046,2696652,2,4,b
1582558447146,2697022,2,4,b
1582558447246,2696276,2,4,b
1582558447346,2694107,2,4,b
1582558447447,2693162,2,4,b
1582558447545,2692684,2,4,b
1582558447647,2691832,2,4,b
1582558447746,2691391,2,4,b
1582558447846,2691802,2,4,b
1582558447946,2692444,2,4,b
1582558448046,2692784,2,4,b
1582558448147,2691010,2,4,b
1582558448247,2688997,2,4,b
1582558448357,2688261,2,4,b
1582558448457,2687688,2,4,b
1582558448556,2687363,2,4,b
1582558448657,2687302,2,4,b
1582558448757,2687572,2,4,b
1582558448857,2688644,2,4,b
1582558448957,2688379,2,4,b
1582558449057,2687041,2,4,b
1582558449157,2685865,2,4,b
1582558449257,2684720,2,4,b
1582558449358,2682913,2,4,b
1582558449458,2681626,2,4,b
1582558449557,2681144,2,4,b
1582558449658,2680879,2,4,b
1582558449758,2680044,2,4,b
1582558449858,2675956,2,4,b
1582558449958,2672134,2,4,b
1582558450058,2669412,2,4,b
1582558450158,2667114,2,4,b
1582558450258,2666386,2,4,b
1582558450358,2667104,2,4,b
1582558450458,2668040,2,4,b
1582558450557,2668808,2,4,b
1582558450658,2668242,2,4,b
1582558450748,2666334,2,4,b
1582558450848,2665456,2,4,b
1582558450948,2665063,2,4,b
1582558451048,2664306,2,4,b
1582558451149,2664304,2,4,b
1582558451248,2664524,2,4,b
1582558451349,2664935,2,4,b
1582558451449,2665398,2,4,b
1582558451548,2664516,2,4,b
1582558451650,2662817,2,4,b
1582558451749,2662346,2,4,b
1582558451849,2662134,2,4,b
1582558451949,2661880,2,4,b
1582558452049,2662412,2,4,b
1582558452149,2662760,2,4,b
1582558452249,2663083,2,4,b
1582558452349,2663754,2,4,b
1582558452460,2663204,2,4,b
1582558452559,2662508,2,4,b
1582558452661,2662917,2,4,b
1582558452761,2663486,2,4,b
1582558452861,2664176,2,4,b
1582558452961,2665573,2,4,b
1582558453061,2666863,0,4,0
1582558453161,2668063,0,4,0
1582558453261,2668654,0,4,0
1582558453361,2668554,0,4,0
1582558453461,2668994,0,4,0
1582558453560,2669327,0,4,0
1582558453661,2669127,0,4,0
1582558453760,2668822,0,4,0
1582558453861,2668717,0,4,0
1582558453961,2668823,0,4,0
1582558454061,2669079,0,4,0
1582558454162,2668906,0,4,0
1582558454261,2668290,0,4,0
1582558454361,2668676,0,4,0
1582558454461,2669482,0,4,0
1582558454560,2670175,0,4,0
1582558454661,2670432,0,4,0
1582558454761,2670588,0,4,0
1582558454861,2670637,0,4,0
1582558454961,2670741,0,4,0
1582558455061,2670244,0,4,0
1582558455161,2669214,0,4,0
1582558455261,2668779,0,4,0
1582558455361,2668731,0,4,0
1582558455462,2668595,0,4,0
1582558455561,2668661,0,4,0
1582558455662,2668917,0,4,0
1582558455753,2669357,0,4,0
1582558455852,2669663,0,4,0
1582558455952,2669477,0,4,0
1582558456052,2669101,0,4,0
1582558456152,2669246,0,4,0
1582558456252,2669551,0,4,0
1582558456352,2669746,0,4,0
1582558456452,2669932,0,4,0
1582558456551,2670344,0,4,0
1582558456652,2670645,0,4,0
1582558456753,2670887,0,4,0
1582558456853,2670571,0,4,0
1582558456953,2670379,0,4,0
1582558457053,2670413,0,4,0
1582558457152,2670824,0,4,0
1582558457263,2671379,0,4,0
1582558457363,2671531,0,4,0
1582558457463,2670953,0,4,0
1582558457562,2670697,0,4,0
1582558457663,2669794,0,4,0
1582558457763,2668144,0,4,0
1582558457863,2667116,0,4,0
1582558457963,2666906,0,4,0
1582558458063,2667198,2,4,b
1582558458164,2668895,2,4,b
1582558458264,2670741,2,4,b
1582558458364,2672324,2,4,b
1582558458464,2673502,2,4,b
1582558458563,2673327,2,4,b
1582558458664,2672660,2,4,b
1582558458764,2672070,2,4,b
1582558458864,2671514,2,4,b
1582558458964,2670813,2,4,b
1582558459064,2670380,2,4,b
1582558459164,2670125,2,4,b
1582558459264,2670221,2,4,b
1582558459364,2670170,2,4,b
1582558459468,2668936,2,4,b
1582558459564,2668341,2,4,b
1582558459666,2668154,2,4,b
1582558459765,2667956,2,4,b
1582558459865,2668020,2,4,b
1582558459965,2668316,2,4,b
1582558460065,2668761,2,4,b
1582558460166,2669049,2,4,b
1582558460265,2667932,2,4,b
1582558460366,2667278,2,4,b
1582558460465,2667153,2,4,b
1582558460565,2666920,2,4,b
1582558460665,2667037,2,4,b
1582558460755,2667219,2,4,b
1582558460855,2667596,2,4,b
1582558460955,2668508,2,4,b
1582558461055,2668231,2,4,b
1582558461155,2667419,2,4,b
1582558461255,2667696,2,4,b
1582558461355,2667796,2,4,b
1582558461456,2667570,2,4,b
1582558461555,2666736,2,4,b
1582558461656,2665963,2,4,b
1582558461756,2665630,2,4,b
1582558461856,2665998,2,4,b
1582558461956,2665266,2,4,b
1582558462056,2664502,2,4,b
1582558462156,2664129,2,4,b
1582558462267,2664047,2,4,b
1582558462366,2663935,2,4,b
1582558462466,2664030,2,4,b
1582558462565,2664184,2,4,b
1582558462667,2664356,2,4,b
1582558462768,2664052,2,4,b
1582558462867,2662926,2,4,b
1582558462967,2662668,2,4,b
1582558463067,2662647,2,4,b
1582558463167,2662390,2,4,b
1582558463267,2662526,2,4,b
1582558463367,2662852,2,4,b
1582558463467,2663130,2,4,b
1582558463566,2663413,2,4,b
1582558463667,2663264,2,4,b
1582558463767,2662482,2,4,b
1582558463867,2663047,2,4,b
1582558463967,2663497,2,4,b
1582558464067,2663410,0,4,0
1582558464167,2663678,0,4,0
1582558464268,2664327,0,4,0
1582558464368,2664861,0,4,0
1582558464468,2665486,0,4,0
1582558464567,2665686,0,4,0
1582558464668,2665533,0,4,0
1582558464768,2665754,0,4,0
1582558464868,2665832,0,4,0
1582558464968,2666106,0,4,0
1582558465068,2666431,0,4,0
1582558465168,2666864,0,4,0
1582558465268,2667291,0,4,0
1582558465368,2667603,0,4,0
1582558465469,2666983,0,4,0
1582558465568,2666864,0,4,0
1582558465669,2666942,0,4,0
1582558465758,2667457,0,4,0
1582558465858,2667858,0,4,0
1582558465958,2668403,0,4,0
1582558466058,2668905,0,4,0
1582558466159,2669376,0,4,0
1582558466259,2669415,0,4,0
1582558466359,2669040,0,4,0
1582558466459,2668997,0,4,0
1582558466558,2669241,0,4,0
1582558466659,2669292,0,4,0
1582558466759,2669640,0,4,0
1582558466859,2670046,0,4,0
1582558466959,2670549,0,4,0
1582558467059,2670899,2,4,b
1582558467159,2670639,2,4,b
1582558467259,2670110,2,4,b
1582558467370,2669890,2,4,b
1582558467470,2669876,2,4,b
1582558467569,2669484,2,4,b
1582558467660,2669629,2,4,b
1582558467760,2669987,2,4,b
1582558467860,2670102,2,4,b
1582558467960,2669762,2,4,b
1582558468060,2669307,2,4,b
1582558468160,2669178,2,4,b
1582558468260,2669478,2,4,b
1582558468360,2669385,2,4,b
1582558468460,2669729,2,4,b
1582558468560,2670112,2,4,b
1582558468660,2670591,2,4,b
1582558468760,2671186,2,4,b
1582558468860,2670456,2,4,b
1582558468960,2670041,2,4,b
1582558469060,2670016,2,4,b
1582558469160,2669757,2,4,b
1582558469261,2669523,2,4,b
1582558469361,2669708,2,4,b
1582558469472,2670072,2,4,b
1582558469570,2670424,2,4,b
1582558469671,2671295,2,4,b
1582558469771,2670476,2,4,b
1582558469871,2669833,2,4,b
1582558469971,2669678,2,4,b
1582558470071,2669475,2,4,b
1582558470171,2669578,2,4,b
1582558470271,2669803,2,4,b
1582558470371,2670101,2,4,b
1582558470472,2670210,2,4,b
1582558470571,2669586,2,4,b
1582558470672,2668874,2,4,b
1582558470762,2668525,2,4,b
1582558470862,2668550,2,4,b
1582558470962,2668570,2,4,b
1582558471062,2668794,2,4,b
1582558471162,2669514,2,4,b
1582558471262,2670391,2,4,b
1582558471362,2670732,2,4,b
1582558471462,2670431,2,4,b
1582558471561,2670196,2,4,b
1582558471665,2670640,2,4,b
1582558471764,2670894,2,4,b
1582558471863,2671453,2,4,b
1582558471963,2672383,2,4,b
1582558472063,2673269,2,4,b
1582558472163,2673997,2,4,b
1582558472263,2673505,2,4,b
1582558472363,2673342,2,4,b
1582558472463,2673453,2,4,b
1582558472562,2673594,2,4,b
1582558472663,2673657,2,4,b
1582558472763,2674036,2,4,b
1582558472863,2674375,2,4,b
1582558472963,2674571,2,4,b
1582558473063,2674727,2,4,b
1582558473174,2673908,2,4,b
1582558473274,2673473,2,4,b
1582558473374,2673084,2,4,b
1582558473474,2672518,2,4,b
1582558473573,2672575,2,4,b
1582558473674,2672894,2,4,b
1582558473774,2673395,2,4,b
1582558473874,2673953,2,4,b
1582558473974,2673099,2,4,b
1582558474074,2672945,2,4,b
1582558474174,2673003,2,4,b
1582558474274,2673251,2,4,b
1582558474374,2673901,2,4,b
1582558474475,2675089,2,4,b
1582558474574,2676690,2,4,b
1582558474675,2678155,2,4,b
1582558474775,2678994,2,4,b
1582558474875,2679632,2,4,b
1582558474965,2680194,2,4,b
1582558475065,2680447,2,4,b
1582558475165,2680271,2,4,b
1582558475265,2680445,2,4,b
1582558475365,2681108,2,4,b
1582558475465,2682291,2,4,b
1582558475564,2683532,2,4,b
1582558475665,2683792,2,4,b
1582558475765,2683997,2,4,b
1582558475865,2684657,2,4,b
1582558475965,2684796,2,4,b
1582558476065,2685195,2,4,b
1582558476165,2685770,2,4,b
1582558476265,2686324,2,4,b
1582558476365,2686812,2,4,b
1582558476466,2686857,2,4,b
1582558476565,2686140,2,4,b
1582558476667,2685853,2,4,b
1582558476766,2685867,2,4,b
1582558476866,2685783,2,4,b
1582558476966,2685984,2,4,b
1582558477066,2686318,2,4,b
1582558477166,2686731,2,4,b
1582558477266,2686905,2,4,b
1582558477366,2686390,2,4,b
1582558477467,2686024,2,4,b
1582558477565,2685967,2,4,b
1582558477667,2685905,2,4,b
1582558477766,2685987,2,4,b
1582558477866,2686107,2,4,b
1582558477967,2686865,2,4,b
1582558478067,2687560,2,4,b
1582558478167,2687792,2,4,b
1582558478277,2688137,2,4,b
1582558478377,2688442,2,4,b
1582558478477,2688545,2,4,b
1582558478576,2688339,2,4,b
1582558478677,2688554,2,4,b
1582558478777,2689643,2,4,b
1582558478877,2690952,2,4,b
1582558478977,2692145,2,4,b
1582558479077,2692399,2,4,b
1582558479177,2693269,2,4,b
1582558479278,2693983,2,4,b
1582558479378,2693495,2,4,b
1582558479478,2692820,2,4,b
1582558479577,2692115,2,4,b
1582558479678,2692005,2,4,b
1582558479778,2692329,2,4,b
1582558479878,2692081,2,4,b
1582558479978,2691359,2,4,b
1582558480078,2691239,0,4,0
1582558480178,2691540,0,4,0
1582558480278,2691840,0,4,0
1582558480378,2692243,0,4,0
1582558480478,2692627,0,4,0
1582558480577,2692459,0,4,0
1582558480678,2692033,0,4,0
1582558480768,2692279,0,4,0
1582558480868,2692887,0,4,0
1582558480968,2693873,0,4,0
1582558481068,2694152,0,4,0
1582558481168,2694109,0,4,0
1582558481269,2694096,0,4,0
1582558481369,2694365,0,4,0
1582558481469,2694203,0,4,0
1582558481568,2693308,0,4,0
1582558481669,2692453,0,4,0
1582558481769,2691717,0,4,0
1582558481869,2691245,0,4,0
1582558481969,2690417,0,4,0
1582558482069,2689976,0,4,0
1582558482169,2689833,0,4,0
1582558482269,2689896,0,4,0
1582558482380,2688697,0,4,0
1582558482480,2687513,0,4,0
1582558482579,2686737,0,4,0
1582558482680,2685993,0,4,0
1582558482780,2685425,0,4,0
1582558482880,2685265,0,4,0
1582558482980,2685181,0,4,0
1582558483080,2684923,0,4,0
1582558483180,2683548,0,4,0
1582558483280,2682443,0,4,0
1582558483380,2682150,0,4,0
1582558483480,2681423,0,4,0
1582558483580,2681198,0,4,0
1582558483681,2681344,0,4,0
1582558483781,2681347,0,4,0
1582558483881,2680885,0,4,0
1582558483981,2679684,0,4,0
1582558484081,2679319,0,4,0
1582558484182,2678965,0,4,0
1582558484281,2678561,0,4,0
1582558484381,2678706,0,4,0
1582558484481,2678915,0,4,0
1582558484580,2679308,0,4,0
1582558484681,2678474,0,4,0
1582558484781,2677488,0,4,0
1582558484881,2677012,0,4,0
1582558484983,2676804,0,4,0
1582558485083,2676869,0,4,0
1582558485183,2677263,0,4,0
1582558485283,2677815,0,4,0
1582558485383,2678064,0,4,0
1582558485483,2677146,0,4,0
1582558485581,2676545,0,4,0
1582558485683,2676370,0,4,0
1582558485772,2676250,0,4,0
1582558485872,2676229,0,4,0
1582558485972,2676604,0,4,0
1582558486072,2676876,0,4,0
1582558486172,2677336,0,4,0
1582558486272,2676857,0,4,0
1582558486372,2676010,0,4,0
1582558486472,2675739,0,4,0
1582558486571,2675594,0,4,0
1582558486672,2675623,0,4,0
1582558486772,2675713,0,4,0
1582558486873,2676340,0,4,0
1582558486972,2676882,0,4,0
1582558487073,2677131,2,4,b
1582558487173,2676588,2,4,b
1582558487273,2676140,2,4,b
1582558487373,2676173,2,4,b
1582558487473,2676439,2,4,b
1582558487572,2676671,2,4,b
1582558487673,2677172,2,4,b
1582558487773,2677522,2,4,b
1582558487873,2677655,2,4,b
1582558487973,2677140,2,4,b
1582558488073,2676960,2,4,b
1582558488173,2677157,2,4,b
1582558488273,2677114,2,4,b
1582558488382,2677211,2,4,b
1582558488483,2678009,2,4,b
1582558488582,2678340,2,4,b
1582558488682,2678284,2,4,b
1582558488782,2677186,2,4,b
1582558488882,2676872,2,4,b
1582558488982,2676378,2,4,b
1582558489083,2676665,2,4,b
1582558489183,2677117,2,4,b
1582558489283,2677543,2,4,b
1582558489384,2677875,2,4,b
1582558489484,2677129,2,4,b
1582558489584,2676820,2,4,b
1582558489684,2676632,2,4,b
1582558489784,2676480,2,4,b
1582558489884,2676083,2,4,b
1582558489984,2675787,2,4,b
1582558490084,2675649,2,4,b
1582558490185,2674949,2,4,b
1582558490284,2674219,2,4,b
1582558490385,2674499,2,4,b
1582558490485,2674809,2,4,b
1582558490585,2674952,2,4,b
1582558490685,2675190,2,4,b
1582558490775,2675203,2,4,b
1582558490875,2674718,2,4,b
1582558490975,2674385,2,4,b
1582558491075,2674208,2,4,b
1582558491175,2674061,2,4,b
1582558491275,2674398,2,4,b
1582558491375,2675031,2,4,b
1582558491476,2675991,2,4,b
1582558491575,2675836,2,4,b
1582558491676,2674963,2,4,b
1582558491776,2674560,2,4,b
1582558491876,2673887,2,4,b
1582558491976,2669363,2,4,b
1582558492076,2658452,2,4,b
1582558492176,2658512,2,4,b
1582558492287,2682161,2,4,b
1582558492376,2701793,2,4,b
1582558492486,2743023,2,4,b
1582558492586,2746158,2,4,b
1582558492686,2742661,2,4,b
1582558492786,2713851,2,4,b
1582558492886,2717737,2,4,b
1582558492987,2717223,2,4,b
1582558493086,2726346,0,4,0
1582558493187,2734535,0,4,0
1582558493288,2743395,0,4,0
1582558493387,2750478,0,4,0
1582558493487,2756331,0,4,0
1582558493587,2759372,0,4,0
1582558493687,2761889,0,4,0
1582558493787,2761880,0,4,0
1582558493887,2761668,0,4,0
1582558493987,2760709,0,4,0
1582558494087,2759416,0,4,0
1582558494187,2757705,0,4,0
1582558494288,2757595,0,4,0
1582558494387,2757632,0,4,0
1582558494488,2757102,0,4,0
1582558494587,2754976,0,4,0
1582558494687,2752290,0,4,0
1582558494788,2748585,0,4,0
1582558494888,2745643,0,4,0
1582558494988,2745938,0,4,0
1582558495088,2746746,0,4,0
1582558495188,2747493,0,4,0
1582558495288,2747626,0,4,0
1582558495388,2745369,0,4,0
1582558495488,2743984,0,4,0
1582558495588,2744690,0,4,0
1582558495689,2745428,0,4,0
1582558495778,2746081,0,4,0
1582558495878,2746167,0,4,0
1582558495978,2745572,0,4,0
1582558496078,2745610,0,4,0
1582558496179,2746578,0,4,0
1582558496279,2745131,0,4,0
1582558496379,2744928,0,4,0
1582558496479,2745524,0,4,0
1582558496579,2745094,0,4,0
1582558496679,2742968,0,4,0
1582558496779,2741903,0,4,0
1582558496879,2741164,0,4,0
1582558496979,2739783,0,4,0
1582558497079,2739149,0,4,0
1582558497179,2736543,0,4,0
1582558497279,2728537,0,4,0
1582558497379,2718736,0,4,0
1582558497480,2750360,0,4,0
1582558497579,2754712,0,4,0
1582558497680,2753797,0,4,0
1582558497780,2752265,0,4,0
1582558497880,2749484,0,4,0
1582558497980,2771284,0,4,0
1582558498080,2745703,0,4,0
1582558498180,2740588,0,4,0
1582558498280,2740904,0,4,0
1582558498380,2737837,0,4,0
1582558498480,2736353,0,4,0
1582558498580,2736034,0,4,0
1582558498680,2736247,0,4,0
1582558498780,2737090,0,4,0
1582558498880,2737805,0,4,0
1582558498980,2738524,0,4,0
1582558499080,2738950,0,4,0
1582558499180,2738478,0,4,0
1582558499281,2739239,0,4,0
1582558499381,2741490,0,4,0
1582558499481,2742519,0,4,0
1582558499581,2742380,0,4,0
1582558499681,2742461,0,4,0
1582558499781,2743158,0,4,0
1582558499883,2742831,0,4,0
1582558499983,2738802,0,4,0
1582558500082,2720507,0,4,0
1582558500182,2684447,0,4,0
1582558500282,2670792,0,4,0
1582558500381,2641571,0,4,0
1582558500482,2643037,0,4,0
1582558500581,2641136,0,4,0
1582558500681,2640216,0,4,0
1582558500782,2640609,0,4,0
1582558500882,2645083,0,4,0
1582558500982,2644951,0,4,0
1582558501082,2645534,0,4,0
1582558501182,2645589,0,4,0
1582558501282,2648006,0,4,0
1582558501382,2656853,0,4,0
1582558501482,2669778,0,4,0
1582558501582,2676005,0,4,0
1582558501683,2673983,0,4,0
1582558501783,2671943,0,4,0
1582558501882,2670090,0,4,0
1582558501982,2668263,0,4,0
1582558502083,2666937,2,4,b
1582558502183,2666439,2,4,b
1582558502294,2666201,2,4,b
1582558502383,2665951,2,4,b
1582558502493,2664430,2,4,b
1582558502593,2658160,2,4,b
1582558502693,2653801,2,4,b
1582558502793,2641260,2,4,b
1582558502893,2619969,2,4,b
1582558502993,2600609,2,4,b
1582558503093,2597987,2,4,b
1582558503194,2599498,2,4,b
1582558503293,2605473,2,4,b
1582558503394,2608671,2,4,b
1582558503494,2606728,2,4,b
1582558503583,2605528,2,4,b
1582558503685,2606745,2,4,b
1582558503784,2605761,2,4,b
1582558503884,2603934,2,4,b
1582558503984,2597361,2,4,b
1582558504084,2594765,2,4,b
1582558504184,2594201,2,4,b
1582558504286,2598205,2,4,b
1582558504384,2595101,2,4,b
1582558504484,2596533,2,4,b
1582558504584,2595150,2,4,b
1582558504684,2594502,2,4,b
1582558504784,2594812,2,4,b
1582558504884,2594741,2,4,b
1582558504985,2594691,2,4,b
1582558505085,2593706,2,4,b
1582558505185,2593583,2,4,b
1582558505285,2593244,2,4,b
1582558505385,2593763,2,4,b
1582558505485,2594447,2,4,b
1582558505585,2594882,2,4,b
1582558505685,2595760,2,4,b
1582558505785,2597134,2,4,b
1582558505885,2596172,2,4,b
1582558505985,2596523,2,4,b
1582558506085,2596010,0,4,0
1582558506185,2596999,0,4,0
1582558506285,2599350,0,4,0
1582558506386,2603681,0,4,0
1582558506486,2619873,0,4,0
1582558506585,2632122,0,4,0
1582558506686,2633819,0,4,0
1582558506786,2634826,0,4,0
1582558506886,2636366,0,4,0
1582558506986,2635184,0,4,0
1582558507086,2633779,0,4,0
1582558507187,2633682,0,4,0
1582558507286,2634178,0,4,0
1582558507386,2634903,0,4,0
1582558507486,2635209,0,4,0
1582558507586,2634869,0,4,0
1582558507687,2634829,0,4,0
1582558507787,2633377,0,4,0
1582558507886,2632911,0,4,0
1582558507987,2634324,0,4,0
1582558508086,2634581,0,4,0
1582558508187,2634538,0,4,0
1582558508297,2634550,0,4,0
1582558508397,2634266,0,4,0
1582558508497,2633760,0,4,0
1582558508597,2633975,0,4,0
1582558508697,2634083,0,4,0
1582558508797,2634420,0,4,0
1582558508897,2634806,0,4,0
1582558508997,2635389,0,4,0
1582558509097,2635612,0,4,0
1582558509198,2635434,0,4,0
1582558509298,2635330,0,4,0
1582558509398,2635465,0,4,0
1582558509498,2635173,0,4,0
1582558509598,2635174,0,4,0
1582558509698,2635034,0,4,0
1582558509798,2635099,0,4,0
1582558509898,2634531,0,4,0
1582558509998,2633763,0,4,0
1582558510100,2633039,0,4,0
1582558510198,2632451,0,4,0
1582558510298,2631896,0,4,0
1582558510398,2631521,0,4,0
1582558510498,2631157,0,4,0
1582558510598,2630764,0,4,0
1582558510688,2630515,0,4,0
1582558510788,2629339,0,4,0
1582558510888,2628494,0,4,0
1582558510989,2627787,0,4,0
1582558511089,2627329,0,4,0
1582558511189,2627045,0,4,0
1582558511289,2626875,0,4,0
1582558511389,2626889,0,4,0
1582558511489,2626707,0,4,0
1582558511589,2626346,0,4,0
1582558511690,2625095,0,4,0
1582558511789,2624355,0,4,0
1582558511889,2623376,0,4,0
1582558511989,2622100,0,4,0
1582558512089,2621010,0,4,0
1582558512189,2620582,0,4,0
1582558512289,2620288,0,4,0
1582558512389,2620301,0,4,0
1582558512500,2620032,0,4,0
1582558512600,2618999,0,4,0
1582558512700,2618570,0,4,0
1582558512800,2617779,0,4,0
1582558512900,2616697,0,4,0
1582558513000,2616064,0,4,0
1582558513100,2616459,0,4,0
1582558513200,2616125,0,4,0
1582558513300,2616237,0,4,0
1582558513400,2616176,0,4,0
1582558513501,2616545,0,4,0
1582558513600,2617292,0,4,0
1582558513701,2618053,0,4,0
1582558513801,2618085,0,4,0
1582558513901,2619274,0,4,0
1582558514001,2620639,0,4,0
1582558514101,2622237,0,4,0
1582558514202,2622041,0,4,0
1582558514301,2621520,0,4,0
1582558514401,2620830,0,4,0
1582558514501,2618137,0,4,0
1582558514601,2616241,0,4,0
1582558514701,2617816,0,4,0
1582558514801,2619502,0,4,0
1582558514901,2620570,0,4,0
1582558515001,2619505,0,4,0
1582558515101,2616151,0,4,0
1582558515202,2615544,0,4,0
1582558515302,2615681,0,4,0
1582558515402,2615550,0,4,0
1582558515502,2616409,0,4,0
1582558515602,2616692,0,4,0
1582558515692,2616744,0,4,0
1582558515793,2617132,0,4,0
1582558515892,2616019,0,4,0
1582558515992,2615629,0,4,0
1582558516092,2615296,0,4,0
1582558516192,2615422,0,4,0
1582558516292,2615886,0,4,0
1582558516392,2616471,0,4,0
1582558516493,2616683,0,4,0
1582558516592,2615765,0,4,0
1582558516692,2613218,0,4,0
1582558516793,2613033,0,4,0
1582558516893,2613640,0,4,0
1582558516993,2613852,0,4,0
1582558517093,2614130,2,4,b
1582558517193,2614088,2,4,b
1582558517293,2613300,2,4,b
1582558517394,2613723,2,4,b
1582558517496,2614168,2,4,b
1582558517594,2612829,2,4,b
1582558517696,2611184,2,4,b
1582558517794,2610392,2,4,b
1582558517894,2609985,2,4,b
1582558517994,2609534,2,4,b
1582558518104,2608241,2,4,b
1582558518204,2607616,2,4,b
1582558518293,2606256,2,4,b
1582558518404,2604708,2,4,b
1582558518504,2603944,2,4,b
1582558518604,2603363,2,4,b
1582558518704,2602941,2,4,b
1582558518804,2602637,2,4,b
1582558518904,2601908,2,4,b
1582558519004,2601229,2,4,b
1582558519104,2601975,2,4,b
1582558519205,2602741,2,4,b
1582558519304,2604468,2,4,b
1582558519404,2603776,2,4,b
1582558519507,2603313,2,4,b
1582558519604,2601791,2,4,b
1582558519706,2602827,2,4,b
1582558519805,2601649,2,4,b
1582558519905,2605437,2,4,b
1582558520005,2603512,2,4,b
1582558520105,2604286,2,4,b
1582558520206,2607081,2,4,b
1582558520305,2606391,2,4,b
1582558520405,2608515,2,4,b
1582558520508,2610088,2,4,b
1582558520605,2610755,2,4,b
1582558520695,2615958,2,4,b
1582558520795,2620872,2,4,b
1582558520895,2620135,2,4,b
1582558520995,2621268,2,4,b
1582558521095,2621843,2,4,b
1582558521195,2622569,2,4,b
1582558521295,2623230,2,4,b
1582558521396,2623623,2,4,b
1582558521496,2624575,2,4,b
1582558521595,2625475,2,4,b
1582558521696,2626689,2,4,b
1582558521796,2627748,2,4,b
1582558521896,2628616,2,4,b
1582558521996,2629605,2,4,b
1582558522096,2630860,2,4,b
1582558522196,2632022,2,4,b
1582558522307,2632331,2,4,b
1582558522396,2632318,2,4,b
1582558522506,2631891,2,4,b
1582558522606,2630840,2,4,b
1582558522707,2630336,2,4,b
1582558522808,2629767,2,4,b
1582558522907,2630135,2,4,b
1582558523007,2629438,2,4,b
1582558523107,2628042,2,4,b
1582558523207,2628464,2,4,b
1582558523307,2628702,2,4,b
1582558523407,2628888,2,4,b
1582558523507,2628666,2,4,b
1582558523608,2629322,2,4,b
1582558523707,2630093,2,4,b
1582558523807,2631122,2,4,b
1582558523907,2632421,2,4,b
1582558524007,2633782,2,4,b
1582558524107,2634440,2,4,b
1582558524208,2634896,2,4,b
1582558524308,2634729,2,4,b
1582558524408,2634385,2,4,b
1582558524508,2634179,2,4,b
1582558524608,2633684,2,4,b
1582558524708,2633137,2,4,b
1582558524808,2632570,2,4,b
1582558524908,2632727,2,4,b
1582558525008,2632906,0,4,0
1582558525108,2632532,0,4,0
1582558525208,2631282,0,4,0
1582558525308,2630245,0,4,0
1582558525408,2628383,0,4,0
1582558525509,2626749,0,4,0
1582558525608,2626021,0,4,0
1582558525699,2625784,0,4,0
1582558525799,2625271,0,4,0
1582558525898,2624999,0,4,0
1582558525999,2624093,0,4,0
1582558526099,2622887,0,4,0
1582558526199,2622286,0,4,0
1582558526299,2621875,0,4,0
1582558526399,2621187,0,4,0
1582558526499,2621035,0,4,0
1582558526599,2621082,0,4,0
1582558526699,2620991,0,4,0
1582558526799,2621352,0,4,0
1582558526899,2620612,0,4,0
1582558526999,2619530,0,4,0
1582558527099,2619110,0,4,0
1582558527210,2618838,0,4,0
1582558527310,2618628,0,4,0
1582558527410,2618623,0,4,0
1582558527510,2618762,0,4,0
1582558527610,2618842,0,4,0
1582558527700,2618707,0,4,0
1582558527800,2617623,0,4,0
1582558527900,2616847,0,4,0
1582558528000,2616509,0,4,0
1582558528100,2616227,0,4,0
1582558528200,2616039,0,4,0
1582558528300,2616086,0,4,0
1582558528400,2616323,0,4,0
1582558528501,2616742,0,4,0
1582558528600,2616563,0,4,0
1582558528700,2615438,0,4,0
1582558528800,2614889,0,4,0
1582558528900,2614507,0,4,0
1582558529001,2614497,0,4,0
1582558529101,2614280,0,4,0
1582558529201,2614355,0,4,0
1582558529311,2614598,0,4,0
1582558529401,2614815,0,4,0
1582558529512,2614648,0,4,0
1582558529611,2613773,0,4,0
1582558529711,2613208,0,4,0
1582558529811,2613139,0,4,0
1582558529911,2612922,0,4,0
1582558530011,2612670,0,4,0
1582558530111,2612868,0,4,0
1582558530212,2613196,0,4,0
1582558530312,2613378,0,4,0
1582558530412,2613473,0,4,0
1582558530512,2612894,0,4,0
1582558530612,2612348,0,4,0
1582558530702,2612418,0,4,0
1582558530802,2612498,0,4,0
1582558530902,2612623,0,4,0
1582558531002,2613046,0,4,0
1582558531102,2613097,0,4,0
1582558531202,2613517,0,4,0
1582558531302,2613068,0,4,0
1582558531402,2612348,0,4,0
1582558531503,2612479,0,4,0
1582558531602,2612326,0,4,0
1582558531703,2612255,0,4,0
1582558531803,2612514,0,4,0
1582558531903,2612682,0,4,0
1582558532003,2612947,0,4,0
1582558532103,2612967,0,4,0
1582558532203,2609197,0,4,0
1582558532313,2609524,0,4,0
1582558532413,2604683,0,4,0
1582558532513,2607303,0,4,0
1582558532613,2610235,0,4,0
1582558532713,2609420,0,4,0
1582558532813,2610989,0,4,0
1582558532913,2611390,0,4,0
1582558533013,2611825,0,4,0
1582558533113,2609079,0,4,0
1582558533214,2607174,0,4,0
1582558533314,2605245,0,4,0
1582558533414,2603920,0,4,0
1582558533514,2602448,0,4,0
1582558533614,2601643,0,4,0
1582558533714,2600257,0,4,0
1582558533814,2598135,0,4,0
1582558533914,2597682,0,4,0
1582558534014,2597950,0,4,0
1582558534114,2596136,0,4,0
1582558534214,2596757,0,4,0
1582558534314,2603430,0,4,0
1582558534415,2607990,0,4,0
1582558534515,2611293,0,4,0
1582558534615,2615127,0,4,0
1582558534715,2619037,0,4,0
1582558534815,2620381,0,4,0
1582558534915,2620803,0,4,0
1582558535005,2621085,0,4,0
1582558535105,2621578,0,4,0
1582558535205,2622442,0,4,0
1582558535305,2622822,0,4,0
1582558535405,2622956,0,4,0
1582558535506,2622705,0,4,0
1582558535605,2622955,0,4,0
1582558535705,2623289,0,4,0
1582558535805,2623795,0,4,0
1582558535905,2624574,0,4,0
1582558536005,2625159,0,4,0
1582558536105,2625726,0,4,0
1582558536205,2625636,0,4,0
1582558536305,2625296,0,4,0
1582558536405,2625530,0,4,0
1582558536506,2625558,0,4,0
1582558536605,2625687,0,4,0
1582558536706,2625894,0,4,0
1582558536806,2626247,0,4,0
1582558536906,2626470,0,4,0
1582558537006,2626095,0,4,0
1582558537106,2625233,0,4,0
1582558537206,2624561,0,4,0
1582558537306,2623835,0,4,0
1582558537407,2623205,0,4,0
1582558537506,2622992,0,4,0
1582558537606,2622922,0,4,0
1582558537707,2622980,0,4,0
1582558537806,2622710,0,4,0
1582558537906,2621824,0,4,0
1582558538007,2620939,0,4,0
1582558538107,2620610,0,4,0
1582558538207,2620709,0,4,0
1582558538317,2620701,0,4,0
1582558538417,2620687,0,4,0
1582558538517,2620740,0,4,0
1582558538618,2620799,0,4,0
1582558538717,2620718,0,4,0
1582558538817,2620266,0,4,0
1582558538917,2619968,0,4,0
1582558539017,2620099,0,4,0
1582558539117,2619868,0,4,0
1582558539218,2619392,0,4,0
1582558539318,2619495,0,4,0
1582558539418,2619256,0,4,0
1582558539518,2618998,0,4,0
1582558539618,2618201,0,4,0
1582558539718,2617459,0,4,0
1582558539818,2617048,0,4,0
1582558539918,2616595,0,4,0
1582558540018,2616278,0,4,0
1582558540118,2616508,0,4,0
1582558540218,2617031,0,4,0
1582558540318,2617599,0,4,0
1582558540418,2617430,0,4,0
1582558540518,2616688,0,4,0
1582558540618,2615598,0,4,0
1582558540709,2613362,0,4,0
1582558540808,2611974,0,4,0
1582558540908,2610703,0,4,0
1582558541009,2610154,0,4,0
1582558541108,2609662,0,4,0
1582558541209,2609522,0,4,0
1582558541309,2609729,0,4,0
1582558541409,2609153,0,4,0
1582558541509,2608673,0,4,0
1582558541609,2607941,0,4,0
1582558541710,2607682,0,4,0
1582558541810,2607560,0,4,0
1582558541909,2608099,0,4,0
1582558542009,2608412,0,4,0
1582558542109,2608664,0,4,0
1582558542209,2608584,0,4,0
1582558542309,2608282,0,4,0
1582558542420,2608869,0,4,0
1582558542520,2610216,0,4,0
1582558542620,2610817,0,4,0
1582558542720,2611668,0,4,0
1582558542820,2612484,0,4,0
1582558542920,2613315,0,4,0
1582558543020,2613273,0,4,0
1582558543120,2613132,0,4,0
1582558543220,2612947,0,4,0
1582558543321,2612980,0,4,0
1582558543421,2612801,0,4,0
1582558543521,2612906,0,4,0
1582558543621,2613942,0,4,0
1582558543721,2615833,0,4,0
1582558543821,2616610,0,4,0
1582558543921,2616629,0,4,0
1582558544021,2616490,0,4,0
1582558544121,2616566,0,4,0
1582558544222,2616613,0,4,0
1582558544321,2616538,0,4,0
1582558544421,2616706,0,4,0
1582558544521,2617220,0,4,0
1582558544621,2616901,0,4,0
1582558544721,2616045,0,4,0
1582558544821,2615433,0,4,0
1582558544921,2615067,0,4,0
1582558545021,2614509,0,4,0
1582558545121,2614651,0,4,0
1582558545222,2615043,0,4,0
1582558545322,2615280,0,4,0
1582558545422,2615019,0,4,0
1582558545522,2614015,0,4,0
1582558545622,2612937,0,4,0
1582558545712,2612570,0,4,0
1582558545812,2612481,0,4,0
1582558545912,2612270,0,4,0
1582558546012,2612488,0,4,0
1582558546112,2612759,0,4,0
1582558546212,2613113,0,4,0
1582558546312,2613008,0,4,0
1582558546412,2612653,0,4,0
1582558546512,2612434,0,4,0
1582558546612,2612363,0,4,0
1582558546712,2612144,0,4,0
1582558546813,2611988,0,4,0
1582558546913,2612186,0,4,0
1582558547013,2612606,0,4,0
1582558547113,2612431,0,4,0
1582558547213,2611957,0,4,0
1582558547313,2611513,0,4,0
1582558547413,2611040,0,4,0
1582558547513,2612053,0,4,0
1582558547613,2613380,0,4,0
1582558547713,2612861,0,4,0
1582558547813,2613331,0,4,0
1582558547913,2611647,0,4,0
1582558548013,2611963,0,4,0
1582558548113,2612085,0,4,0
1582558548214,2608139,0,4,0
1582558548313,2604168,0,4,0
1582558548424,2604033,0,4,0
1582558548525,2606767,0,4,0
1582558548624,2608856,0,4,0
1582558548724,2608003,0,4,0
1582558548824,2607233,0,4,0
1582558548924,2605727,0,4,0
1582558549024,2603593,0,4,0
1582558549124,2605976,0,4,0
1582558549224,2607640,0,4,0
1582558549325,2606848,0,4,0
1582558549427,2602974,0,4,0
1582558549526,2601253,0,4,0
1582558549626,2600124,0,4,0
1582558549726,2599308,0,4,0
1582558549826,2597697,0,4,0
1582558549925,2596913,0,4,0
1582558550026,2596968,0,4,0
1582558550125,2599991,0,4,0
1582558550226,2599879,0,4,0
1582558550326,2596843,0,4,0
1582558550425,2595614,0,4,0
1582558550525,2593937,0,4,0
1582558550625,2595535,0,4,0
1582558550715,2596486,0,4,0
1582558550815,2598195,0,4,0
1582558550915,2598001,0,4,0
1582558551015,2598990,0,4,0
1582558551115,2599778,0,4,0
1582558551215,2599609,0,4,0
1582558551315,2598874,0,4,0
1582558551416,2598226,0,4,0
1582558551516,2597499,0,4,0
1582558551616,2596687,0,4,0
1582558551716,2595846,0,4,0
1582558551816,2595669,0,4,0
1582558551916,2595809,0,4,0
1582558552016,2595420,0,4,0
1582558552116,2595689,0,4,0
1582558552217,2595223,0,4,0
1582558552326,2594607,0,4,0
1582558552427,2594185,0,4,0
1582558552526,2594414,0,4,0
1582558552626,2594486,0,4,0
1582558552727,2594570,0,4,0
1582558552827,2594690,0,4,0
1582558552927,2594851,0,4,0
1582558553027,2594792,0,4,0
1582558553127,2594469,0,4,0
1582558553228,2594623,0,4,0
1582558553327,2594591,0,4,0
1582558553427,2594642,0,4,0
1582558553527,2594666,0,4,0
1582558553627,2594815,0,4,0
1582558553727,2595054,0,4,0
1582558553827,2595341,0,4,0
1582558553927,2595115,0,4,0
1582558554027,2594968,0,4,0
1582558554127,2595020,0,4,0
1582558554228,2595074,0,4,0
1582558554328,2595286,0,4,0
1582558554428,2595431,0,4,0
1582558554528,2595713,0,4,0
1582558554628,2595437,0,4,0
1582558554728,2595241,0,4,0
1582558554828,2595500,0,4,0
1582558554928,2595607,0,4,0
1582558555028,2595672,0,4,0
1582558555128,2595892,0,4,0
1582558555228,2596256,0,4,0
1582558555328,2597105,0,4,0
1582558555429,2596710,0,4,0
1582558555529,2596604,0,4,0
1582558555628,2596781,0,4,0
1582558555719,2596917,0,4,0
1582558555819,2597129,0,4,0
1582558555918,2597398,0,4,0
1582558556019,2597506,0,4,0
1582558556119,2598121,0,4,0
1582558556219,2597516,0,4,0
1582558556329,2596910,0,4,0
1582558556429,2596685,0,4,0
1582558556529,2597051,0,4,0
1582558556629,2597095,0,4,0
1582558556729,2597176,0,4,0
1582558556830,2597179,0,4,0
1582558556930,2597166,0,4,0
1582558557029,2597246,0,4,0
1582558557130,2596698,0,4,0
1582558557230,2596447,0,4,0
1582558557330,2596469,0,4,0
1582558557430,2596344,0,4,0
1582558557530,2596418,0,4,0
1582558557630,2596652,0,4,0
1582558557730,2597023,0,4,0
1582558557830,2597391,0,4,0
1582558557930,2597769,0,4,0
1582558558030,2597477,0,4,0
1582558558130,2597225,0,4,0
1582558558230,2597661,0,4,0
1582558558331,2598065,0,4,0
1582558558431,2598599,0,4,0
1582558558530,2599175,0,4,0
1582558558631,2599820,0,4,0
1582558558731,2600184,0,4,0
1582558558831,2600045,0,4,0
1582558558931,2599567,0,4,0
1582558559031,2599527,0,4,0
1582558559131,2599739,0,4,0
1582558559231,2599965,0,4,0
1582558559331,2600278,0,4,0
1582558559431,2600571,0,4,0
1582558559531,2601053,0,4,0
1582558559631,2601209,0,4,0
1582558559731,2600690,0,4,0
1582558559831,2600677,0,4,0
1582558559931,2600909,0,4,0
1582558560032,2600906,0,4,0
1582558560132,2601250,0,4,0
1582558560232,2601397,0,4,0
1582558560332,2601845,0,4,0
1582558560432,2601853,0,4,0
1582558560532,2600965,0,4,0
1582558560632,2600213,0,4,0
1582558560722,2599804,0,4,0
1582558560822,2599182,0,4,0
1582558560922,2598832,0,4,0
1582558561022,2598861,0,4,0
1582558561122,2599802,0,4,0
1582558561222,2600356,0,4,0
1582558561322,2600436,0,4,0
1582558561422,2599905,0,4,0
1582558561523,2599465,0,4,0
1582558561622,2599346,0,4,0
1582558561723,2599554,0,4,0
1582558561823,2599940,0,4,0
1582558561923,2600160,0,4,0
1582558562023,2600105,0,4,0
1582558562123,2599637,0,4,0
1582558562223,2597671,0,4,0
1582558562333,2596755,0,4,0
1582558562433,2597565,0,4,0
1582558562533,2594686,0,4,0
1582558562633,2592196,0,4,0
1582558562733,2593418,0,4,0
1582558562833,2594935,0,4,0
1582558562933,2595704,0,4,0
1582558563034,2593434,1,4,n
1582558563134,2593100,1,4,n
1582558563234,2593091,1,4,n
1582558563334,2597129,1,4,n
1582558563434,2598715,1,4,n
1582558563526,2595970,1,4,n
1582558563634,2596111,1,4,n
1582558563734,2620747,1,4,n
1582558563835,2808777,1,4,n
1582558563934,2709311,1,4,n
1582558564034,2623732,1,4,n
1582558564134,2617235,1,4,n
1582558564234,2669358,1,4,n
1582558564334,2687367,1,4,n
1582558564435,2689660,1,4,n
1582558564535,2688961,1,4,n
1582558564634,2673603,1,4,n
1582558564735,2674072,1,4,n
1582558564836,2677187,1,4,n
1582558564926,2677005,1,4,n
1582558565025,2682690,1,4,n
1582558565125,2687760,1,4,n
1582558565225,2692522,1,4,n
1582558565325,2695399,1,4,n
1582558565425,2697017,1,4,n
1582558565525,2698225,1,4,n
1582558565625,2698167,1,4,n
1582558565725,2698080,1,4,n
1582558565825,2698223,1,4,n
1582558565925,2699211,1,4,n
1582558566025,2700706,1,4,n
1582558566128,2701557,1,4,n
1582558566226,2701717,1,4,n
1582558566325,2701288,1,4,n
1582558566425,2700958,1,4,n
1582558566526,2701119,1,4,n
1582558566625,2701660,1,4,n
1582558566726,2703148,1,4,n
1582558566826,2703887,1,4,n
1582558566926,2704413,1,4,n
1582558567026,2704616,0,4,0
1582558567126,2704701,0,4,0
1582558567226,2704883,0,4,0
1582558567326,2704523,0,4,0
1582558567426,2704173,0,4,0
1582558567526,2704564,0,4,0
1582558567626,2704792,0,4,0
1582558567727,2705408,0,4,0
1582558567826,2705584,0,4,0
1582558567926,2705310,0,4,0
1582558568027,2704694,0,4,0
1582558568126,2703649,0,4,0
1582558568227,2703219,0,4,0
1582558568327,2703753,0,4,0
1582558568427,2705782,0,4,0
1582558568527,2707850,0,4,0
1582558568627,2709155,0,4,0
1582558568727,2708496,0,4,0
1582558568827,2707683,0,4,0
1582558568927,2707439,0,4,0
1582558569027,2706799,0,4,0
1582558569127,2706452,0,4,0
1582558569227,2706744,0,4,0
1582558569338,2707207,0,4,0
1582558569438,2705988,0,4,0
1582558569538,2704794,0,4,0
1582558569638,2704619,0,4,0
1582558569738,2704384,0,4,0
1582558569838,2704255,0,4,0
1582558569938,2704691,0,4,0
1582558570038,2704981,0,4,0
1582558570138,2705278,0,4,0
1582558570238,2705276,0,4,0
1582558570338,2704442,0,4,0
1582558570439,2703632,0,4,0
1582558570538,2703091,0,4,0
1582558570638,2702377,0,4,0
1582558570729,2701831,0,4,0
1582558570828,2701556,0,4,0
1582558570928,2701715,0,4,0
1582558571029,2701995,0,4,0
1582558571129,2701899,0,4,0
1582558571229,2701738,0,4,0
1582558571329,2702539,0,4,0
1582558571429,2703450,0,4,0
1582558571529,2704036,0,4,0
1582558571629,2704410,0,4,0
1582558571730,2705382,0,4,0
1582558571830,2707529,0,4,0
1582558571929,2710343,0,4,0
1582558572029,2711895,0,4,0
1582558572129,2712734,0,4,0
1582558572229,2713152,0,4,0
1582558572329,2713320,0,4,0
1582558572440,2712911,0,4,0
1582558572540,2711859,0,4,0
1582558572640,2709096,0,4,0
1582558572740,2709649,0,4,0
1582558572840,2716260,0,4,0
1582558572940,2720453,0,4,0
1582558573040,2724657,0,4,0
1582558573140,2730224,0,4,0
1582558573240,2735801,0,4,0
1582558573340,2737593,0,4,0
1582558573440,2737394,0,4,0
1582558573541,2739409,0,4,0
1582558573641,2742954,0,4,0
1582558573741,2746003,0,4,0
1582558573841,2747256,0,4,0
1582558573941,2747991,0,4,0
1582558574041,2748555,0,4,0
1582558574141,2748067,0,4,0
1582558574242,2748408,0,4,0
1582558574341,2748725,0,4,0
1582558574441,2749172,0,4,0
1582558574541,2750033,0,4,0
1582558574641,2751101,0,4,0
1582558574741,2751964,0,4,0
1582558574841,2751547,0,4,0
1582558574941,2751377,0,4,0
1582558575042,2752152,0,4,0
1582558575142,2752214,0,4,0
1582558575242,2753127,0,4,0
1582558575341,2754910,0,4,0
1582558575442,2754812,0,4,0
1582558575542,2752918,0,4,0
1582558575642,2752511,0,4,0
1582558575732,2754977,0,4,0
1582558575833,2757392,0,4,0
1582558575932,2759548,0,4,0
1582558576032,2761362,0,4,0
1582558576132,2764564,0,4,0
1582558576232,2765404,0,4,0
1582558576332,2766184,0,4,0
1582558576432,2765754,0,4,0
1582558576533,2764276,0,4,0
1582558576632,2762625,0,4,0
1582558576733,2761995,0,4,0
1582558576833,2762817,0,4,0
1582558576933,2764027,0,4,0
1582558577033,2764735,0,4,0
1582558577143,2765831,0,4,0
1582558577233,2766584,0,4,0
1582558577343,2767452,0,4,0
1582558577443,2768202,0,4,0
1582558577543,2767653,0,4,0
1582558577643,2768029,0,4,0
1582558577743,2769096,0,4,0
1582558577843,2770581,0,4,0
1582558577944,2771772,0,4,0
1582558578044,2772485,0,4,0
1582558578144,2772750,0,4,0
1582558578244,2773248,0,4,0
1582558578344,2777231,0,4,0
1582558578444,2780489,0,4,0
1582558578534,2780906,0,4,0
1582558578644,2778033,0,4,0
1582558578744,2778502,0,4,0
1582558578844,2781361,0,4,0
1582558578944,2780839,0,4,0
1582558579044,2780440,0,4,0
1582558579144,2780516,0,4,0
1582558579244,2780454,0,4,0
1582558579344,2780072,0,4,0
1582558579444,2779303,0,4,0
1582558579547,2779499,0,4,0
1582558579645,2779392,0,4,0
1582558579746,2779565,0,4,0
1582558579845,2779668,0,4,0
1582558579945,2779992,0,4,0
1582558580045,2779775,0,0,0
1582558580145,2779300,0,0,0
1582558580246,2779486,0,0,0
1582558580345,2779553,0,0,0
1582558580445,2779965,0,0,0
1582558580545,2780211,0,0,0
1582558580645,2780353,0,0,0
1582558580735,2780738,0,0,0
1582558580835,2781103,0,0,0
1582558580935,2780716,0,0,0
1582558581035,2780785,0,0,0
1582558581135,2781779,0,0,0
1582558581235,2779052,0,0,0
1582558581335,2778249,0,0,0
1582558581436,2780400,0,0,0
1582558581536,2780028,0,0,0
1582558581636,2779938,0,0,0
1582558581736,2780388,0,0,0
1582558581836,2780906,0,0,0
1582558581936,2781333,0,0,0
1582558582036,2781837,0,0,0
1582558582136,2782246,0,0,0
1582558582236,2782716,0,0,0
1582558582346,2783329,0,0,0
1582558582446,2783699,0,0,0
1582558582546,2783675,0,0,0
1582558582648,2784138,0,0,0
1582558582748,2786040,0,0,0
1582558582848,2787121,0,0,0
1582558582948,2787644,0,0,0
1582558583047,2787376,0,0,0
1582558583147,2786277,0,0,0
1582558583247,2785346,0,0,0
1582558583347,2784686,0,0,0
1582558583447,2783856,0,0,0
1582558583547,2783110,0,0,0
1582558583647,2782243,0,0,0
1582558583747,2780641,0,0,0
1582558583847,2779068,0,0,0
1582558583947,2778484,0,0,0
1582558584048,2777984,0,0,0
1582558584147,2778084,0,0,0
1582558584248,2777591,0,0,0
1582558584348,2776586,0,0,0
1582558584448,2771928,0,0,0
1582558584548,2770134,0,0,0
1582558584648,2775012,0,0,0
1582558584748,2776110,0,0,0
1582558584848,2773435,0,0,0
1582558584966,2767066,0,0,0
1582558585141,2768349,0,0,0
1582558585239,2763804,0,0,0
1582558585339,2761097,0,0,0
1582558585440,2759322,0,0,0
1582558585540,2757132,0,0,0
1582558585642,2754195,0,0,0
1582558585741,2754973,0,0,0
1582558585842,2755911,0,0,0
1582558585941,2756854,0,0,0
1582558586041,2759561,0,0,0
1582558586140,2762310,0,0,0
1582558586243,2762801,0,0,0
1582558586344,2764799,0,0,0
1582558586441,2763798,0,0,0
1582558586541,2761733,0,0,0
1582558586642,2762375,0,0,0
1582558586741,2761124,0,0,0
1582558586842,2761164,0,0,0
1582558586943,2762325,0,0,0
1582558587042,2763340,0,0,0
1582558587142,2764691,0,0,0
1582558587244,2766801,0,0,0
1582558587342,2768653,0,0,0
1582558587442,2770320,0,0,0
1582558587542,2771938,0,0,0
1582558587642,2772942,0,0,0
1582558587743,2772468,0,0,0
1582558587843,2772573,0,0,0
1582558587942,2773432,0,0,0
1582558588043,2774471,0,0,0
1582558588143,2774684,0,0,0
1582558588243,2774403,0,0,0
1582558588343,2774349,0,0,0
1582558588444,2774764,0,0,0
1582558588543,2775359,0,0,0
1582558588644,2776710,0,0,0
1582558588743,2778157,0,0,0
1582558588843,2778873,0,0,0
1582558588943,2778955,0,0,0
1582558589044,2778744,0,0,0
1582558589143,2778882,0,0,0
1582558589244,2778672,0,0,0
1582558589344,2778629,0,0,0
1582558589444,2778634,0,0,0
1582558589544,2778746,0,0,0
1582558589645,2778693,0,0,0
1582558589757,2778148,0,0,0
1582558589842,2777424,0,0,0
1582558589943,2777101,0,0,0
1582558590042,2776521,0,0,0
1582558590144,2776322,0,0,0
1582558590243,2776164,0,0,0
1582558590342,2776213,0,0,0
1582558590442,2776123,0,0,0
1582558590543,2775329,0,0,0
1582558590642,2774572,0,0,0
1582558590742,2774111,0,0,0
1582558590842,2773737,0,0,0
1582558590942,2773554,0,0,0
1582558591042,2773443,0,0,0
1582558591143,2773435,0,0,0
1582558591243,2773313,0,0,0
1582558591343,2772581,0,0,0
1582558591443,2771512,0,0,0
1582558591543,2771187,0,0,0
1582558591643,2770997,0,0,0
1582558591744,2770914,0,0,0
1582558591844,2770888,0,0,0
1582558591943,2770448,0,0,0
1582558592044,2769915,0,0,0
1582558592144,2769477,0,0,0
1582558592244,2768837,0,0,0
1582558592344,2766242,0,0,0
1582558592444,2759742,0,0,0
1582558592544,2756477,0,0,0
1582558592654,2755753,0,0,0
1582558592754,2756438,0,0,0
1582558592844,2757281,0,0,0
1582558592954,2758516,0,0,0
1582558593054,2759635,0,0,0
1582558593154,2760249,0,0,0
1582558593255,2760053,0,0,0
1582558593354,2759898,0,0,0
1582558593454,2759699,0,0,0
1582558593556,2759595,0,0,0
1582558593655,2759487,0,0,0
1582558593756,2758117,0,0,0
1582558593855,2756843,0,0,0
1582558593955,2755650,0,0,0
1582558594055,2754752,0,0,0
1582558594155,2753983,0,0,0
1582558594255,2753426,0,0,0
1582558594355,2753144,0,0,0
1582558594455,2752188,0,0,0
1582558594556,2750564,0,0,0
1582558594655,2749257,0,0,0
1582558594756,2748106,0,0,0
1582558594855,2747228,0,0,0
1582558594945,2746428,0,0,0
1582558595046,2746224,0,0,0
1582558595146,2746382,0,0,0
1582558595245,2747208,0,0,0
1582558595346,2746678,0,0,0
1582558595446,2746237,0,0,0
1582558595546,2746494,0,0,0
1582558595646,2746648,0,0,0
1582558595746,2746737,0,0,0
1582558595846,2746989,0,0,0
1582558595946,2747599,0,0,0
1582558596046,2748096,0,0,0
1582558596146,2746988,0,0,0
1582558596246,2745678,0,0,0
1582558596346,2744560,0,0,0
1582558596446,2743410,0,0,0
1582558596546,2742328,0,0,0
1582558596646,2741677,0,0,0
1582558596747,2740928,0,0,0
1582558596847,2740660,0,0,0
1582558596947,2739238,0,0,0
1582558597046,2737023,0,0,0
1582558597147,2735314,0,0,0
1582558597247,2734403,0,0,0
1582558597347,2733988,0,0,0
1582558597447,2734231,0,0,0
1582558597547,2735068,0,0,0
1582558597647,2735124,0,0,0
1582558597747,2733664,0,0,0
1582558597847,2733033,0,0,0
1582558597947,2733176,0,0,0
1582558598047,2732962,0,0,0
1582558598147,2732977,0,0,0
1582558598247,2733657,0,0,0
1582558598348,2734138,0,0,0
1582558598448,2733827,0,0,0
1582558598558,2732094,0,0,0
1582558598658,2731517,0,0,0
1582558598758,2731253,0,0,0
1582558598858,2731243,0,0,0
1582558598958,2731347,0,0,0
1582558599058,2731899,0,0,0
1582558599158,2732379,0,0,0
1582558599258,2732202,0,0,0
1582558599359,2730612,0,0,0
1582558599459,2729980,0,0,0
1582558599559,2729865,0,0,0
1582558599659,2729600,0,0,0
1582558599759,2729830,0,0,0
1582558599849,2730267,0,0,0
1582558599948,2730740,0,0,0
1582558600049,2729905,0,0,0
1582558600149,2729120,0,0,0
1582558600249,2728972,0,0,0
1582558600349,2729164,0,0,0
1582558600449,2729287,0,0,0
1582558600549,2729926,0,0,0
1582558600649,2730656,0,0,0
1582558600749,2731238,0,0,0
1582558600849,2730729,0,0,0
1582558600949,2730719,0,0,0
1582558601049,2731375,0,0,0
1582558601149,2732084,0,0,0
1582558601250,2732947,0,0,0
1582558601350,2733948,0,0,0
1582558601450,2735128,0,0,0
1582558601550,2735890,0,0,0
1582558601650,2735830,0,0,0
1582558601750,2736395,0,0,0
1582558601850,2737429,0,0,0
1582558601950,2738343,0,0,0
1582558602050,2739555,0,0,0
1582558602150,2740921,0,0,0
1582558602250,2742135,0,0,0
1582558602350,2742746,0,0,0
1582558602460,2742563,0,0,0
1582558602560,2742810,0,0,0
1582558602661,2743498,0,0,0
1582558602761,2744041,0,0,0
1582558602861,2745092,0,0,0
1582558602961,2745812,0,0,0
1582558603061,2746829,0,0,0
1582558603161,2747445,0,0,0
1582558603261,2746971,0,0,0
1582558603361,2746921,0,0,0
1582558603461,2747216,0,0,0
1582558603561,2747403,0,0,0
1582558603661,2747691,0,0,0
1582558603762,2748280,0,0,0
1582558603862,2748960,0,0,0
1582558603961,2749645,0,0,0
1582558604062,2749045,0,0,0
1582558604162,2748682,0,0,0
1582558604262,2748627,0,0,0
1582558604363,2748541,0,0,0
1582558604462,2749239,0,0,0
1582558604562,2750096,0,0,0
1582558604662,2751219,0,0,0
1582558604762,2752634,0,0,0
1582558604862,2752101,0,0,0
1582558604962,2751543,0,0,0
1582558605062,2751358,0,0,0
1582558605162,2751367,0,0,0
1582558605262,2751167,0,0,0
1582558605362,2751642,0,0,0
1582558605463,2752744,0,0,0
1582558605563,2753615,0,0,0
1582558605662,2753864,0,0,0
1582558605753,2753535,0,0,0
1582558605853,2753711,0,0,0
1582558605953,2754171,0,0,0
1582558606053,2754907,0,0,0
1582558606153,2755306,0,0,0
1582558606253,2756284,0,0,0
1582558606353,2756832,0,0,0
1582558606453,2756388,0,0,0
1582558606553,2755893,0,0,0
1582558606653,2756190,0,0,0
1582558606753,2756227,0,0,0
1582558606853,2756325,0,0,0
1582558606953,2756660,0,0,0
