timestamp,ppg,label,stage,hand
1582540360921,2862801,0,5,0
1582540360922,2871137,0,5,0
1582540361002,2875394,0,5,0
1582540361101,2890470,0,5,0
1582540361200,2897172,0,5,0
1582540361301,2897847,0,5,0
1582540361401,2896079,0,5,0
1582540361500,2897221,0,5,0
1582540361600,2905469,0,5,0
1582540361701,2910565,0,5,0
1582540361801,2915236,0,5,0
1582540361901,2918681,0,5,0
1582540362000,2919052,0,5,0
1582540362101,2918061,0,5,0
1582540362201,2922366,0,5,0
1582540362301,2929704,0,5,0
1582540362401,2930041,0,5,0
1582540362502,2929247,0,5,0
1582540362601,2928696,0,5,0
1582540362702,2929861,0,5,0
1582540362801,2933226,0,5,0
1582540362901,3026981,0,5,0
1582540363001,2945649,0,5,0
1582540363092,2941347,0,5,0
1582540363192,2947664,0,5,0
1582540363291,3004844,0,5,0
1582540363391,2955232,0,5,0
1582540363491,2958110,0,5,0
1582540363611,2957446,0,5,0
1582540363705,2959178,0,5,0
1582540363794,3062998,0,5,0
1582540363892,3034889,0,5,0
1582540363992,2972813,0,5,0
1582540364095,2976443,0,5,0
1582540364194,2967057,0,5,0
1582540364295,2968621,0,5,0
1582540364395,2975781,0,5,0
1582540364496,2977804,0,5,0
1582540364594,2980803,0,5,0
1582540364694,2980625,0,5,0
1582540364794,2981294,0,5,0
1582540364895,2981071,0,5,0
1582540364994,2980585,0,5,0
1582540365094,2979116,0,5,0
1582540365196,2976142,0,5,0
1582540365296,2972412,0,5,0
1582540365395,2969006,0,5,0
1582540365495,2965812,0,5,0
1582540365595,2963296,0,5,0
1582540365694,2960171,0,5,0
1582540365797,2957451,0,5,0
1582540365897,2954700,0,5,0
1582540365997,2951775,0,5,0
1582540366096,2947954,0,5,0
1582540366196,2944227,0,5,0
1582540366296,2940748,0,5,0
1582540366397,2937648,0,5,0
1582540366498,2934640,0,5,0
1582540366596,2931720,0,5,0
1582540366697,2928236,0,5,0
1582540366796,2924841,0,5,0
1582540366896,2921671,0,5,0
1582540366998,2918750,0,5,0
1582540367096,2916006,0,5,0
1582540367197,2913746,0,5,0
1582540367297,2910667,0,5,0
1582540367396,2907271,0,5,0
1582540367497,2904647,0,5,0
1582540367597,2902331,0,5,0
1582540367697,2900308,0,5,0
1582540367797,2898794,0,5,0
1582540367898,2896401,0,5,0
1582540367997,2892577,0,5,0
1582540368098,2889163,0,5,0
1582540368198,2886239,0,5,0
1582540368297,2883467,0,5,0
1582540368397,2881841,0,5,0
1582540368498,2880592,0,5,0
1582540368597,2877758,0,5,0
1582540368698,2875015,0,5,0
1582540368798,2873432,0,5,0
1582540368898,2871880,0,5,0
1582540368998,2870705,0,5,0
1582540369131,2870064,0,5,0
1582540369200,2868903,0,5,0
1582540369296,2866091,0,5,0
1582540369397,2864125,0,5,0
1582540369498,2862745,0,5,0
1582540369598,2861494,0,5,0
1582540369699,2860588,0,5,0
1582540369798,2860065,0,5,0
1582540369898,2858009,0,5,0
1582540369998,2855407,0,5,0
1582540370098,2853713,0,5,0
1582540370197,2852781,0,5,0
1582540370297,2851747,0,5,0
1582540370407,2851479,0,5,0
1582540370507,2850893,0,5,0
1582540370608,2848573,0,5,0
1582540370707,2846502,0,5,0
1582540370807,2845434,0,5,0
1582540370908,2844842,0,5,0
1582540371008,2844211,0,5,0
1582540371108,2844242,0,5,0
1582540371208,2843562,0,5,0
1582540371308,2841711,0,5,0
1582540371408,2843741,0,5,0
1582540371508,2846218,0,5,0
1582540371608,2847491,0,5,0
1582540371708,2847833,0,5,0
1582540371808,2847967,0,5,0
1582540371908,2848204,0,5,0
1582540372008,2846759,0,5,0
1582540372109,2845648,0,5,0
1582540372208,2845372,0,5,0
1582540372308,2845394,0,5,0
1582540372408,2845257,0,5,0
1582540372508,2845585,0,5,0
1582540372609,2845495,0,5,0
1582540372709,2843927,0,5,0
1582540372808,2842684,0,5,0
1582540372910,2842623,0,5,0
1582540373009,2842844,0,5,0
1582540373100,2843338,0,5,0
1582540373200,2843923,0,5,0
1582540373299,2844134,0,5,0
1582540373399,2842395,0,5,0
1582540373499,2841662,0,5,0
1582540373599,2840618,0,5,0
1582540373699,2838651,0,5,0
1582540373799,2837222,0,5,0
1582540373900,2836863,0,5,0
1582540373999,2837467,0,5,0
1582540374099,2836652,0,5,0
1582540374200,2835810,0,5,0
1582540374299,2834522,0,5,0
1582540374399,2833451,0,5,0
1582540374500,2832668,0,5,0
1582540374599,2832007,0,5,0
1582540374700,2830933,0,5,0
1582540374800,2829736,0,5,0
1582540374900,2829113,0,5,0
1582540375001,2828147,0,5,0
1582540375101,2827653,0,5,0
1582540375201,2827678,0,5,0
1582540375301,2827383,0,5,0
1582540375401,2826939,0,5,0
1582540375501,2826816,0,5,0
1582540375601,2827069,0,5,0
1582540375701,2827034,0,5,0
1582540375811,2827058,0,5,0
1582540375911,2826697,0,5,0
1582540376011,2825776,0,5,0
1582540376111,2825386,0,5,0
1582540376211,2825449,0,5,0
1582540376311,2825568,0,5,0
1582540376411,2825728,0,5,0
1582540376511,2825510,0,5,0
1582540376611,2824444,0,5,0
1582540376711,2824144,0,5,0
1582540376811,2823965,0,5,0
1582540376912,2824157,0,5,0
1582540377012,2824314,0,5,0
1582540377110,2824376,0,5,0
1582540377210,2823782,0,5,0
1582540377310,2823338,0,5,0
1582540377410,2823903,0,5,0
1582540377511,2823925,0,5,0
1582540377610,2824462,0,5,0
1582540377710,2824557,0,5,0
1582540377811,2824407,0,5,0
1582540377910,2824270,0,5,0
1582540378010,2824583,0,5,0
1582540378111,2824891,0,5,0
1582540378210,2825203,0,5,0
1582540378310,2825701,0,5,0
1582540378411,2826046,0,5,0
1582540378511,2825892,0,5,0
1582540378612,2825967,0,5,0
1582540378712,2826422,0,5,0
1582540378812,2826676,0,5,0
1582540378912,2827099,0,5,0
1582540379012,2827540,0,5,0
1582540379112,2827602,0,5,0
1582540379202,2827690,0,5,0
1582540379302,2828045,0,5,0
1582540379401,2828367,0,5,0
1582540379501,2828713,0,5,0
1582540379601,2829270,0,5,0
1582540379701,2828177,0,5,0
1582540379801,2825937,0,5,0
1582540379903,2827989,0,5,0
1582540380002,2831901,0,5,0
1582540380102,2835343,0,5,0
1582540380202,2838271,0,5,0
1582540380302,2839464,0,5,0
1582540380402,2839908,0,5,0
1582540380504,2839656,0,5,0
1582540380602,2839747,0,5,0
1582540380702,2840490,0,5,0
1582540380803,2841256,0,5,0
1582540380913,2842384,0,5,0
1582540381014,2843731,0,5,0
1582540381114,2845668,0,5,0
1582540381214,2846533,0,5,0
1582540381314,2846551,0,5,0
1582540381414,2845881,0,5,0
1582540381514,2844953,0,5,0
1582540381614,2844207,0,5,0
1582540381714,2844019,0,5,0
1582540381814,2843624,0,5,0
1582540381915,2843208,0,5,0
1582540382015,2843133,0,5,0
1582540382115,2842888,0,5,0
1582540382215,2842485,0,5,0
1582540382315,2842564,0,5,0
1582540382415,2842599,0,5,0
1582540382515,2842242,0,5,0
1582540382615,2841953,0,5,0
1582540382715,2842061,0,5,0
1582540382815,2842073,0,5,0
1582540382915,2842375,0,5,0
1582540383015,2842973,0,5,0
1582540383106,2842733,0,5,0
1582540383206,2842013,0,5,0
1582540383305,2841594,0,5,0
1582540383405,2841429,0,5,0
1582540383506,2841118,0,5,0
1582540383605,2840831,0,5,0
1582540383716,2840434,0,5,0
1582540383806,2839432,0,5,0
1582540383906,2838672,0,5,0
1582540384006,2838327,0,5,0
1582540384106,2838082,0,5,0
1582540384206,2838207,0,5,0
1582540384306,2838332,0,5,0
1582540384406,2837646,0,5,0
1582540384506,2837008,0,5,0
1582540384606,2836412,0,5,0
1582540384706,2835768,0,5,0
1582540384806,2835784,0,5,0
1582540384906,2836418,0,5,0
1582540385007,2837204,0,5,0
1582540385107,2837646,0,5,0
1582540385206,2839430,0,5,0
1582540385307,2841310,0,5,0
1582540385406,2842099,0,5,0
1582540385507,2840397,0,5,0
1582540385607,2838660,0,5,0
1582540385707,2836826,0,5,0
1582540385807,2834952,0,5,0
1582540385907,2833365,0,5,0
1582540386007,2832065,0,5,0
1582540386107,2830969,0,5,0
1582540386207,2830027,0,5,0
1582540386307,2828554,0,5,0
1582540386407,2827563,0,5,0
1582540386507,2827081,0,5,0
1582540386607,2826928,0,5,0
1582540386707,2827119,0,5,0
1582540386808,2831610,0,5,0
1582540386907,2837562,0,5,0
1582540387008,2842063,0,5,0
1582540387108,2842485,0,5,0
1582540387208,2840847,0,5,0
1582540387307,2841435,0,5,0
1582540387408,2842632,0,5,0
1582540387508,2841571,0,5,0
1582540387608,2840121,0,5,0
1582540387708,2840156,0,5,0
1582540387808,2841065,0,5,0
1582540387908,2841428,0,5,0
1582540388009,2841808,0,5,0
1582540388109,2841401,0,5,0
1582540388208,2840695,0,5,0
1582540388308,2840997,0,5,0
1582540388408,2841602,0,5,0
1582540388509,2841957,0,5,0
1582540388609,2842729,0,5,0
1582540388709,2842818,0,5,0
1582540388809,2842178,0,5,0
1582540388909,2842233,0,5,0
1582540389009,2842501,0,5,0
1582540389109,2842633,0,5,0
1582540389209,2843198,0,5,0
1582540389309,2843793,0,5,0
1582540389409,2843514,0,5,0
1582540389509,2843048,0,5,0
1582540389609,2843128,0,5,0
1582540389709,2843412,0,5,0
1582540389810,2843742,0,5,0
1582540389909,2844529,0,5,0
1582540390009,2845216,0,5,0
1582540390110,2845036,0,5,0
1582540390210,2844733,0,5,0
1582540390310,2845183,0,5,0
1582540390410,2845770,0,5,0
1582540390510,2846267,0,5,0
1582540390610,2846634,0,5,0
1582540390710,2847025,0,5,0
1582540390810,2846794,0,5,0
1582540390920,2845302,0,5,0
1582540391021,2843428,0,5,0
1582540391121,2843014,0,5,0
1582540391220,2843802,0,5,0
1582540391321,2844224,0,5,0
1582540391421,2844610,0,5,0
1582540391521,2844868,0,5,0
1582540391621,2845259,0,5,0
1582540391721,2845209,0,5,0
1582540391821,2844706,0,5,0
1582540391921,2845032,0,5,0
1582540392021,2845488,0,5,0
1582540392121,2845472,0,5,0
1582540392222,2845705,0,5,0
1582540392321,2846784,0,5,0
1582540392422,2847538,0,5,0
1582540392522,2846960,0,5,0
1582540392621,2846555,0,5,0
1582540392722,2846197,0,5,0
1582540392822,2845818,0,5,0
1582540392922,2845068,0,5,0
1582540393022,2846099,0,5,0
1582540393112,2848084,0,5,0
1582540393212,2848418,0,5,0
1582540393311,2847759,0,5,0
1582540393412,2847855,0,5,0
1582540393512,2847829,0,5,0
1582540393612,2847494,0,5,0
1582540393712,2847757,0,5,0
1582540393812,2848086,0,5,0
1582540393912,2847958,0,5,0
1582540394012,2847611,0,5,0
1582540394112,2847979,0,5,0
1582540394213,2848522,0,5,0
1582540394313,2848486,0,5,0
1582540394412,2848366,0,5,0
1582540394513,2848009,0,5,0
1582540394613,2847629,0,5,0
1582540394713,2846972,0,5,0
1582540394813,2847198,0,5,0
1582540394913,2847520,0,5,0
1582540395013,2847287,0,5,0
1582540395113,2847084,0,5,0
1582540395213,2847092,0,5,0
1582540395313,2846670,0,5,0
1582540395413,2845766,0,5,0
1582540395513,2845619,0,5,0
1582540395613,2848215,0,5,0
1582540395713,2856352,0,5,0
1582540395814,2859642,0,5,0
1582540395913,2864285,0,5,0
1582540396013,2867512,0,5,0
1582540396114,2869936,0,5,0
1582540396214,2874226,0,5,0
1582540396314,2880843,0,5,0
1582540396414,2889206,0,5,0
1582540396514,2897392,0,5,0
1582540396614,2904320,0,5,0
1582540396714,2915431,0,5,0
1582540396814,2921345,0,5,0
1582540396915,2923172,0,5,0
1582540397014,2927422,0,5,0
1582540397114,2932475,0,5,0
1582540397224,2932045,0,5,0
1582540397325,2931179,0,5,0
1582540397424,2929639,0,5,0
1582540397524,2927033,0,5,0
1582540397625,2925675,0,5,0
1582540397725,2924906,0,5,0
1582540397824,2926736,0,5,0
1582540397925,2928722,0,5,0
1582540398025,2934055,0,5,0
1582540398126,2934795,0,5,0
1582540398225,2933571,0,5,0
1582540398325,2935553,0,5,0
1582540398425,2935593,0,5,0
1582540398526,2935533,0,5,0
1582540398625,2937182,0,5,0
1582540398725,2936724,0,5,0
1582540398826,2936427,0,5,0
1582540398926,2936966,0,5,0
1582540399028,2937903,0,5,0
1582540399126,2938318,0,5,0
1582540399216,2938778,0,5,0
1582540399316,2938886,0,5,0
1582540399416,2938875,0,5,0
1582540399516,2938966,0,5,0
1582540399616,2938056,0,5,0
1582540399717,2936823,0,5,0
1582540399816,2935700,0,5,0
1582540399916,2934993,0,5,0
1582540400017,2934454,0,5,0
1582540400117,2934512,0,5,0
1582540400216,2934218,0,5,0
1582540400317,2933139,0,5,0
1582540400417,2932152,0,5,0
1582540400517,2931296,0,5,0
1582540400617,2930513,0,5,0
1582540400717,2929927,0,5,0
1582540400827,2929599,0,5,0
1582540400917,2928484,0,5,0
1582540401027,2926804,0,5,0
1582540401127,2925424,0,5,0
1582540401227,2924333,0,5,0
1582540401327,2923273,0,5,0
1582540401427,2922114,0,5,0
1582540401528,2921121,0,5,0
1582540401627,2920925,0,5,0
1582540401727,2920288,0,5,0
1582540401828,2918541,0,5,0
1582540401929,2917035,0,5,0
1582540402029,2915845,0,5,0
1582540402128,2914522,0,5,0
1582540402228,2913796,0,5,0
1582540402328,2913262,0,5,0
1582540402428,2911949,0,5,0
1582540402528,2910352,0,5,0
1582540402629,2908931,0,5,0
1582540402729,2907830,0,5,0
1582540402828,2906957,0,5,0
1582540402928,2906101,0,5,0
1582540403029,2905521,0,5,0
1582540403119,2904055,0,5,0
1582540403218,2902436,0,5,0
1582540403319,2901085,0,5,0
1582540403419,2899835,0,5,0
1582540403518,2898743,0,5,0
1582540403619,2898199,0,5,0
1582540403719,2897585,0,5,0
1582540403819,2895835,0,5,0
1582540403919,2893966,0,5,0
1582540404019,2892605,0,5,0
1582540404119,2891474,0,5,0
1582540404219,2890573,0,5,0
1582540404319,2889995,0,5,0
1582540404419,2889190,0,5,0
1582540404520,2887406,0,5,0
1582540404619,2885600,0,5,0
1582540404719,2884257,0,5,0
1582540404820,2883274,0,5,0
1582540404919,2882371,0,5,0
1582540405021,2882315,0,5,0
1582540405122,2881585,0,5,0
1582540405221,2878964,0,5,0
1582540405321,2877858,0,5,0
1582540405421,2877003,0,5,0
1582540405521,2876504,0,5,0
1582540405621,2876252,0,5,0
1582540405721,2875944,0,5,0
1582540405821,2873735,0,5,0
1582540405920,2871796,0,5,0
1582540406031,2871213,0,5,0
1582540406131,2871637,0,5,0
1582540406231,2872365,0,5,0
1582540406331,2873514,0,5,0
1582540406431,2874525,0,5,0
1582540406531,2874813,0,5,0
1582540406632,2873374,0,5,0
1582540406731,2872469,0,5,0
1582540406832,2871956,0,5,0
1582540406932,2871585,0,5,0
1582540407032,2871405,0,5,0
1582540407132,2871476,0,5,0
1582540407232,2871487,0,5,0
1582540407332,2870503,0,5,0
1582540407433,2869336,0,5,0
1582540407533,2869174,0,5,0
1582540407632,2869343,0,5,0
1582540407733,2869588,0,5,0
1582540407832,2870132,0,5,0
1582540407932,2871038,0,5,0
1582540408032,2870618,0,5,0
1582540408134,2869469,0,5,0
1582540408232,2869138,0,5,0
1582540408332,2868899,0,5,0
1582540408433,2869133,0,5,0
1582540408533,2869717,0,5,0
1582540408633,2870776,0,5,0
1582540408733,2871306,0,5,0
1582540408833,2870447,0,5,0
1582540408933,2869911,0,5,0
1582540409033,2869749,0,5,0
1582540409133,2869769,0,5,0
1582540409223,2870038,0,5,0
1582540409323,2870942,0,5,0
1582540409423,2870582,0,5,0
1582540409523,2869819,0,5,0
1582540409623,2869960,0,5,0
1582540409723,2870098,0,5,0
1582540409823,2870473,0,5,0
1582540409923,2871034,0,5,0
1582540410023,2871287,0,5,0
1582540410123,2869530,0,5,0
1582540410224,2868013,0,5,0
1582540410324,2866962,0,5,0
1582540410424,2866555,0,5,0
1582540410525,2866534,0,5,0
1582540410624,2866895,0,5,0
1582540410724,2866180,0,5,0
1582540410825,2864821,0,5,0
1582540410935,2864165,0,5,0
1582540411035,2864074,0,5,0
1582540411135,2863891,0,5,0
1582540411235,2864446,0,5,0
1582540411334,2864607,0,5,0
1582540411435,2863568,0,5,0
1582540411534,2862447,0,5,0
1582540411634,2862234,0,5,0
1582540411735,2862020,0,5,0
1582540411834,2862324,0,5,0
1582540411934,2862803,0,5,0
1582540412035,2863123,0,5,0
1582540412135,2861902,0,5,0
1582540412234,2860999,0,5,0
1582540412335,2861091,0,5,0
1582540412435,2861021,0,5,0
1582540412535,2861431,0,5,0
1582540412635,2862080,0,5,0
1582540412735,2862582,0,5,0
1582540412835,2861547,0,5,0
1582540412935,2860759,0,5,0
1582540413035,2860732,0,5,0
1582540413126,2860771,0,5,0
1582540413225,2861260,0,5,0
1582540413325,2861653,0,5,0
1582540413425,2862115,0,5,0
1582540413525,2860792,0,5,0
1582540413627,2861402,0,5,0
1582540413725,2861058,0,5,0
1582540413826,2859211,0,5,0
1582540413926,2858069,0,5,0
1582540414036,2856859,0,5,0
1582540414126,2860559,0,5,0
1582540414226,2863979,0,5,0
1582540414326,2865603,0,5,0
1582540414426,2866630,0,5,0
1582540414526,2866548,0,5,0
1582540414626,2867087,0,5,0
1582540414727,2868967,0,5,0
1582540414826,2871235,0,5,0
1582540414926,2872620,0,5,0
1582540415027,2872769,0,5,0
1582540415126,2873275,0,5,0
1582540415226,2874034,0,5,0
1582540415327,2874613,0,5,0
1582540415427,2875443,0,5,0
1582540415527,2875911,0,5,0
1582540415627,2875272,0,5,0
1582540415727,2874455,0,5,0
1582540415827,2873985,0,5,0
1582540415927,2873744,0,5,0
1582540416027,2873722,0,5,0
1582540416127,2874194,0,5,0
1582540416227,2874922,0,5,0
1582540416327,2874624,0,5,0
1582540416427,2874354,0,5,0
1582540416528,2874727,0,5,0
1582540416627,2875256,0,5,0
1582540416728,2876354,0,5,0
1582540416828,2878198,0,5,0
1582540416927,2879741,0,5,0
1582540417028,2879766,0,5,0
1582540417128,2879725,0,5,0
1582540417228,2879884,0,5,0
1582540417328,2880214,0,5,0
1582540417428,2880728,0,5,0
1582540417528,2881706,0,5,0
1582540417628,2881659,0,5,0
1582540417728,2878496,0,5,0
1582540417828,2873741,0,5,0
1582540417928,2870041,0,5,0
1582540418028,2869142,0,5,0
1582540418129,2871595,0,5,0
1582540418228,2873675,0,5,0
1582540418329,2874465,0,5,0
1582540418439,2874564,0,5,0
1582540418529,2874421,0,5,0
1582540418639,2874381,0,5,0
1582540418729,2873899,0,5,0
1582540418829,2874043,0,5,0
1582540418931,2874272,0,5,0
1582540419029,2873529,0,5,0
1582540419129,2871937,0,5,0
1582540419229,2870897,0,5,0
1582540419329,2871075,0,5,0
1582540419429,2871413,0,5,0
1582540419529,2872368,0,5,0
1582540419629,2873423,0,5,0
1582540419729,2872944,0,5,0
1582540419830,2871863,0,5,0
1582540419929,2871551,0,5,0
1582540420029,2871610,0,5,0
1582540420130,2871911,0,5,0
1582540420230,2872909,0,5,0
1582540420330,2873630,0,5,0
1582540420430,2872752,0,5,0
1582540420530,2871568,0,5,0
1582540420630,2871185,0,5,0
1582540420730,2871540,0,5,0
1582540420830,2871913,0,5,0
1582540420940,2872601,0,5,0
1582540421041,2873203,0,5,0
1582540421141,2873071,0,5,0
1582540421241,2871898,0,5,0
1582540421341,2871196,0,5,0
1582540421441,2871029,0,5,0
1582540421541,2871357,0,5,0
1582540421641,2872157,0,5,0
1582540421741,2872659,0,5,0
1582540421841,2872294,0,5,0
1582540421941,2870942,0,5,0
1582540422041,2870472,0,5,0
1582540422141,2870137,0,5,0
1582540422241,2870000,0,5,0
1582540422341,2870333,0,5,0
1582540422442,2870748,0,5,0
1582540422542,2870604,0,5,0
1582540422641,2869369,0,5,0
1582540422742,2868792,0,5,0
1582540422842,2868646,0,5,0
1582540422942,2868695,0,5,0
1582540423042,2869193,0,5,0
1582540423132,2870238,0,5,0
1582540423232,2869868,0,5,0
1582540423332,2869225,0,5,0
1582540423432,2868975,0,5,0
1582540423532,2868511,0,5,0
1582540423632,2868912,0,5,0
1582540423732,2870016,0,5,0
1582540423832,2871056,0,5,0
1582540423932,2871093,0,5,0
1582540424032,2870474,0,5,0
1582540424134,2870663,0,5,0
1582540424233,2870425,0,5,0
1582540424333,2870479,0,5,0
1582540424433,2870883,0,5,0
1582540424533,2870829,0,5,0
1582540424633,2869295,0,5,0
1582540424733,2867600,0,5,0
1582540424833,2867082,0,5,0
1582540424933,2866867,0,5,0
1582540425033,2866673,0,5,0
1582540425133,2866891,0,5,0
1582540425233,2866704,0,5,0
1582540425333,2865360,0,5,0
1582540425433,2864653,0,5,0
1582540425534,2864455,0,5,0
1582540425633,2864591,0,5,0
1582540425733,2864714,0,5,0
1582540425834,2865331,0,5,0
1582540425944,2864497,0,5,0
1582540426044,2862930,0,5,0
1582540426144,2862360,0,5,0
1582540426244,2862331,0,5,0
1582540426344,2862250,0,5,0
1582540426444,2862864,0,5,0
1582540426544,2863128,0,5,0
1582540426645,2861567,0,5,0
1582540426745,2860466,0,5,0
1582540426844,2860358,0,5,0
1582540426945,2860299,0,5,0
1582540427045,2860539,0,5,0
1582540427145,2861408,0,5,0
1582540427244,2861422,0,5,0
1582540427345,2859873,0,5,0
1582540427435,2859577,0,5,0
1582540427534,2859948,0,5,0
1582540427635,2860447,0,5,0
1582540427735,2861221,0,5,0
1582540427835,2862431,0,5,0
1582540427935,2862553,0,5,0
1582540428035,2861305,0,5,0
1582540428147,2860828,0,5,0
1582540428236,2861133,0,5,0
1582540428335,2861517,0,5,0
1582540428437,2862588,0,5,0
1582540428536,2863686,0,5,0
1582540428635,2863330,0,5,0
1582540428745,2862496,0,5,0
1582540428836,2862333,0,5,0
1582540428936,2862600,0,5,0
1582540429037,2862954,0,5,0
1582540429146,2863469,0,5,0
1582540429236,2864157,0,5,0
1582540429337,2863803,0,5,0
1582540429436,2862315,0,5,0
1582540429536,2861549,0,5,0
1582540429636,2860452,0,5,0
1582540429736,2859299,0,5,0
1582540429836,2858461,0,5,0
1582540429936,2857780,0,5,0
1582540430037,2856806,0,5,0
1582540430136,2855807,0,5,0
1582540430236,2855478,0,5,0
1582540430337,2855708,0,5,0
1582540430437,2856382,0,5,0
1582540430537,2857436,0,5,0
1582540430637,2858136,0,5,0
1582540430737,2857397,0,5,0
1582540430837,2856862,0,5,0
1582540430937,2856525,0,5,0
1582540431037,2856443,0,5,0
1582540431137,2858532,0,5,0
1582540431237,2861902,0,5,0
1582540431337,2861265,0,5,0
1582540431437,2858662,0,5,0
1582540431537,2855853,0,5,0
1582540431637,2852571,0,5,0
1582540431737,2852990,0,5,0
1582540431838,2856036,0,5,0
1582540431937,2858770,0,5,0
1582540432037,2862774,0,5,0
1582540432150,2869011,0,5,0
1582540432248,2875056,0,5,0
1582540432348,2881429,0,5,0
1582540432448,2894023,0,5,0
1582540432548,2899584,0,5,0
1582540432649,2905991,0,5,0
1582540432749,2916702,0,5,0
1582540432848,2924939,0,5,0
1582540432948,2927504,0,5,0
1582540433048,2926824,0,5,0
1582540433139,2929567,0,5,0
1582540433238,2930102,0,5,0
1582540433338,2929901,0,5,0
1582540433438,2930532,0,5,0
1582540433538,2930089,0,5,0
1582540433639,2930338,0,5,0
1582540433739,2930888,0,5,0
1582540433839,2930876,0,5,0
1582540433939,2931467,0,5,0
1582540434039,2933133,0,5,0
1582540434139,2937376,0,5,0
1582540434239,2941994,0,5,0
1582540434339,2945175,0,5,0
1582540434439,2947458,0,5,0
1582540434540,2947789,0,5,0
1582540434639,2946252,0,5,0
1582540434739,2944693,0,5,0
1582540434840,2943297,0,5,0
1582540434940,2941869,0,5,0
1582540435040,2940753,0,5,0
1582540435140,2939142,0,5,0
1582540435240,2937417,0,5,0
1582540435340,2936111,0,5,0
1582540435440,2934765,0,5,0
1582540435540,2933407,0,5,0
1582540435640,2932448,0,5,0
1582540435741,2931211,0,5,0
1582540435840,2929609,0,5,0
1582540435940,2928342,0,5,0
1582540436051,2926834,0,5,0
1582540436151,2925345,0,5,0
1582540436251,2923842,0,5,0
1582540436351,2922352,0,5,0
1582540436451,2920784,0,5,0
1582540436551,2919072,0,5,0
1582540436651,2919174,0,5,0
1582540436751,2916315,0,5,0
1582540436851,2914140,0,5,0
1582540436951,2913670,0,5,0
1582540437051,2913470,0,5,0
1582540437151,2913447,0,5,0
1582540437251,2913928,0,5,0
1582540437351,2914825,0,5,0
1582540437452,2915482,0,5,0
1582540437553,2916240,0,5,0
1582540437653,2916434,0,5,0
1582540437753,2915478,0,5,0
1582540437853,2914644,0,5,0
1582540437953,2914197,0,5,0
1582540438052,2913511,0,5,0
1582540438154,2913299,0,5,0
1582540438253,2913263,0,5,0
1582540438353,2911245,0,5,0
1582540438454,2908765,0,5,0
1582540438553,2907345,0,5,0
1582540438653,2907159,0,5,0
1582540438753,2908494,0,5,0
1582540438852,2910138,0,5,0
1582540438953,2910833,0,5,0
1582540439053,2909874,0,5,0
1582540439153,2908985,0,5,0
1582540439243,2909140,0,5,0
1582540439343,2909597,0,5,0
1582540439443,2911175,0,5,0
1582540439543,2911613,0,5,0
1582540439643,2910447,0,5,0
1582540439743,2910832,0,5,0
1582540439843,2911368,0,5,0
1582540439944,2911633,0,5,0
1582540440043,2911575,0,5,0
1582540440144,2910295,0,5,0
1582540440244,2906463,0,5,0
1582540440343,2903735,0,5,0
1582540440444,2901942,0,5,0
1582540440544,2900510,0,5,0
1582540440644,2899690,0,5,0
1582540440743,2899148,0,5,0
1582540440844,2897148,0,5,0
1582540440944,2895479,0,5,0
1582540441055,2895186,0,5,0
1582540441155,2895235,0,5,0
1582540441254,2895682,0,5,0
1582540441354,2896026,0,5,0
1582540441455,2894789,0,5,0
1582540441554,2892607,0,5,0
1582540441654,2891699,0,5,0
1582540441755,2891346,0,5,0
1582540441855,2891650,0,5,0
1582540441956,2891668,0,5,0
1582540442055,2890342,0,5,0
1582540442156,2888136,0,5,0
1582540442255,2886429,0,5,0
1582540442356,2885090,0,5,0
1582540442458,2884063,0,5,0
1582540442556,2883937,0,5,0
1582540442656,2883727,0,5,0
1582540442756,2882136,0,5,0
1582540442857,2880877,0,5,0
1582540442957,2880958,0,5,0
1582540443057,2880849,0,5,0
1582540443147,2880866,0,5,0
1582540443246,2882129,0,5,0
1582540443345,2882794,0,5,0
1582540443445,2881153,0,5,0
1582540443546,2876038,0,5,0
1582540443646,2871930,0,5,0
1582540443746,2868468,0,5,0
1582540443846,2866092,0,5,0
1582540443946,2863164,0,5,0
1582540444046,2859187,0,5,0
1582540444147,2855989,0,5,0
1582540444246,2854955,0,5,0
1582540444346,2855078,0,5,0
1582540444446,2855657,0,5,0
1582540444546,2856101,0,5,0
1582540444646,2855205,0,5,0
1582540444746,2853570,0,5,0
1582540444846,2853297,0,5,0
1582540444946,2853734,0,5,0
1582540445047,2854228,0,5,0
1582540445147,2855407,0,5,0
1582540445246,2855477,0,5,0
1582540445347,2853932,0,5,0
1582540445447,2854847,0,5,0
1582540445547,2856776,0,5,0
1582540445647,2858214,0,5,0
1582540445747,2859305,0,5,0
1582540445847,2860274,0,5,0
1582540445947,2859529,0,5,0
1582540446047,2857535,0,5,0
1582540446147,2858045,0,5,0
1582540446247,2859529,0,5,0
1582540446347,2860986,0,5,0
1582540446447,2862539,0,5,0
1582540446548,2863258,0,5,0
1582540446647,2862273,0,5,0
1582540446747,2862587,0,5,0
1582540446848,2862747,0,5,0
1582540446948,2863515,0,5,0
1582540447048,2864614,0,5,0
1582540447148,2866345,0,5,0
1582540447258,2866514,0,5,0
1582540447348,2866682,0,5,0
1582540447458,2866395,0,5,0
1582540447558,2865201,0,5,0
1582540447658,2863038,0,5,0
1582540447759,2860938,0,5,0
1582540447858,2858566,0,5,0
1582540447958,2854595,0,5,0
1582540448059,2850300,0,5,0
1582540448159,2847080,0,5,0
1582540448259,2845297,0,5,0
1582540448359,2844467,0,5,0
1582540448459,2843628,0,5,0
1582540448559,2843068,0,5,0
1582540448659,2842532,0,5,0
1582540448759,2843016,0,5,0
1582540448849,2844482,0,5,0
1582540448949,2846322,0,5,0
1582540449049,2848361,0,5,0
1582540449149,2850677,0,5,0
1582540449249,2853136,0,5,0
1582540449349,2854549,0,5,0
1582540449449,2855599,0,5,0
1582540449549,2855954,0,5,0
1582540449649,2856240,0,5,0
1582540449749,2857123,0,5,0
1582540449850,2857662,0,5,0
1582540449950,2857882,0,5,0
1582540450049,2859598,0,5,0
1582540450150,2861600,0,5,0
1582540450250,2863923,0,5,0
1582540450350,2865814,0,5,0
1582540450450,2866366,0,5,0
1582540450550,2867240,0,5,0
1582540450650,2869862,0,5,0
1582540450750,2872226,0,5,0
1582540450850,2873317,0,5,0
1582540450961,2874850,0,5,0
1582540451061,2875281,0,5,0
1582540451161,2874618,0,5,0
1582540451261,2874178,0,5,0
1582540451361,2874027,0,5,0
1582540451461,2874469,0,5,0
1582540451561,2875031,0,5,0
1582540451661,2874373,0,5,0
1582540451761,2873511,0,5,0
1582540451861,2874103,0,5,0
1582540451963,2875328,0,5,0
1582540452061,2875986,0,5,0
1582540452161,2876872,0,5,0
1582540452262,2877727,0,5,0
1582540452361,2876810,0,5,0
1582540452462,2876458,0,5,0
1582540452562,2877555,0,5,0
1582540452662,2877940,0,5,0
1582540452762,2878027,0,5,0
1582540452862,2878395,0,5,0
1582540452962,2878237,0,5,0
1582540453062,2878505,0,5,0
1582540453153,2879634,0,5,0
1582540453252,2879851,0,5,0
1582540453352,2878669,0,5,0
1582540453452,2877509,0,5,0
1582540453552,2872588,0,5,0
1582540453652,2862590,0,5,0
1582540453752,2860489,0,5,0
1582540453852,2864556,0,5,0
1582540453952,2869389,0,5,0
1582540454052,2871829,0,5,0
1582540454153,2875615,0,5,0
1582540454252,2877438,0,5,0
1582540454353,2879055,0,5,0
1582540454453,2880189,0,5,0
1582540454553,2880989,0,5,0
1582540454653,2882317,0,5,0
1582540454753,2883749,0,5,0
1582540454853,2885201,0,5,0
1582540454953,2885004,0,5,0
1582540455053,2883893,0,5,0
1582540455153,2883411,0,5,0
1582540455253,2882403,0,5,0
1582540455353,2881150,0,5,0
1582540455453,2880524,0,5,0
1582540455553,2880555,0,5,0
1582540455653,2880068,0,5,0
1582540455753,2879560,0,5,0
1582540455854,2879564,0,5,0
1582540455953,2879329,0,5,0
1582540456054,2879342,0,5,0
1582540456164,2879536,0,5,0
1582540456254,2879567,0,5,0
1582540456364,2879479,0,5,0
1582540456464,2879439,0,5,0
1582540456564,2879588,0,5,0
1582540456665,2879754,0,5,0
1582540456765,2879938,0,5,0
1582540456864,2880332,0,5,0
1582540456964,2879966,0,5,0
1582540457065,2879943,0,5,0
1582540457165,2880222,0,5,0
1582540457264,2880536,0,5,0
1582540457367,2881246,0,5,0
1582540457465,2881787,0,5,0
1582540457564,2881320,0,5,0
1582540457665,2881284,0,5,0
1582540457765,2881383,0,5,0
1582540457865,2881643,0,5,0
1582540457965,2882077,0,5,0
1582540458065,2882175,0,5,0
1582540458167,2881542,0,5,0
1582540458266,2880973,0,5,0
1582540458365,2881024,0,5,0
1582540458466,2881346,0,5,0
1582540458566,2881738,0,5,0
1582540458666,2882307,0,5,0
1582540458766,2881557,0,5,0
1582540458866,2881228,0,5,0
1582540458966,2881942,0,5,0
1582540459067,2882681,0,5,0
1582540459156,2884283,0,5,0
1582540459256,2885546,0,5,0
1582540459356,2886052,0,5,0
1582540459456,2885861,0,5,0
1582540459558,2886651,0,5,0
1582540459656,2887790,0,5,0
1582540459756,2888733,0,5,0
1582540459856,2889903,0,5,0
1582540459956,2890442,0,5,0
1582540460057,2889988,0,5,0
1582540460157,2890260,0,5,0
1582540460256,2890707,0,5,0
1582540460357,2890987,0,5,0
1582540460457,2891398,0,5,0
1582540460557,2891812,0,5,0
1582540460657,2891212,0,5,0
1582540460757,2890549,0,5,0
1582540460857,2890615,0,5,0
1582540460967,2890582,0,5,0
1582540461067,2890760,0,5,0
1582540461167,2891405,0,5,0
1582540461268,2891210,0,5,0
1582540461368,2889750,0,5,0
1582540461467,2888252,0,5,0
1582540461568,2886926,0,5,0
1582540461668,2886230,0,5,0
1582540461767,2886541,0,5,0
1582540461868,2887164,0,5,0
1582540461969,2886679,0,5,0
1582540462068,2885767,0,5,0
1582540462168,2885951,0,5,0
1582540462268,2886553,0,5,0
1582540462368,2887991,0,5,0
1582540462468,2889312,0,5,0
1582540462568,2890335,0,5,0
1582540462669,2890015,0,5,0
1582540462769,2889986,0,5,0
1582540462869,2890006,0,5,0
1582540462968,2890146,0,5,0
1582540463069,2890876,0,5,0
1582540463159,2891432,0,5,0
1582540463258,2891068,0,5,0
1582540463359,2890428,0,5,0
1582540463458,2890431,0,5,0
1582540463559,2890401,0,5,0
1582540463659,2890524,0,5,0
1582540463759,2891161,0,5,0
1582540463869,2891790,0,5,0
1582540463959,2890958,0,5,0
1582540464059,2890557,0,5,0
1582540464159,2890689,0,5,0
1582540464259,2890803,0,5,0
1582540464359,2891434,0,5,0
1582540464459,2892220,0,5,0
1582540464560,2892774,0,5,0
1582540464659,2892088,0,5,0
1582540464759,2891942,0,5,0
1582540464860,2892502,0,5,0
1582540464960,2892978,0,5,0
1582540465060,2893729,0,5,0
1582540465160,2894485,0,5,0
1582540465260,2894131,0,5,0
1582540465360,2893123,0,5,0
1582540465460,2893096,0,5,0
1582540465560,2893397,0,5,0
1582540465660,2893617,0,5,0
1582540465760,2894498,0,5,0
1582540465860,2894776,0,5,0
1582540465960,2893860,0,5,0
1582540466071,2893241,0,5,0
1582540466171,2893354,0,5,0
1582540466271,2891148,0,5,0
1582540466371,2891411,0,5,0
1582540466471,2892712,0,5,0
1582540466561,2894659,0,5,0
1582540466661,2891411,0,5,0
1582540466761,2890466,0,5,0
1582540466861,2892507,0,5,0
1582540466961,2889985,0,5,0
1582540467061,2886998,0,5,0
1582540467162,2884815,0,5,0
1582540467261,2883800,0,5,0
1582540467361,2885478,0,5,0
1582540467461,2885879,0,5,0
1582540467562,2884996,0,5,0
1582540467661,2884002,0,5,0
1582540467762,2883138,0,5,0
1582540467862,2881052,0,5,0
1582540467961,2879834,0,5,0
1582540468061,2885814,0,5,0
1582540468162,2890684,0,5,0
1582540468261,2895894,0,5,0
1582540468362,2901769,0,5,0
1582540468473,2905215,0,5,0
1582540468572,2908839,0,5,0
1582540468673,2913771,0,5,0
1582540468773,2917566,0,5,0
1582540468872,2920640,0,5,0
1582540468972,2919570,0,5,0
1582540469073,2918362,0,5,0
1582540469172,2917412,0,5,0
1582540469263,2915614,0,5,0
1582540469363,2917285,0,5,0
1582540469462,2918819,0,5,0
1582540469563,2918674,0,5,0
1582540469665,2923276,0,5,0
1582540469764,2932910,0,5,0
1582540469864,2937132,0,5,0
1582540469964,2940280,0,5,0
1582540470064,2942516,0,5,0
1582540470164,2944270,0,5,0
1582540470264,2945224,0,5,0
1582540470364,2943653,0,5,0
1582540470463,2942212,0,5,0
1582540470564,2941438,0,5,0
1582540470664,2942887,0,5,0
1582540470763,2944760,0,5,0
1582540470864,2946786,0,5,0
1582540470964,2948806,0,5,0
1582540471064,2949586,0,5,0
1582540471175,2949979,0,5,0
1582540471274,2950632,0,5,0
1582540471374,2951437,0,5,0
1582540471476,2952846,0,5,0
1582540471565,2952296,0,5,0
1582540471675,2945049,0,5,0
1582540471775,2934541,0,5,0
1582540471875,2932514,0,5,0
1582540471965,2930758,0,5,0
1582540472076,2930751,0,5,0
1582540472212,2931163,0,5,0
1582540472268,2930400,0,5,0
1582540472368,2931758,0,5,0
1582540472465,2939563,0,5,0
1582540472565,2945363,0,5,0
1582540472665,2947400,0,5,0
1582540472765,2951152,0,5,0
1582540472865,2946470,0,5,0
1582540472970,2949086,0,5,0
1582540473067,2954880,0,5,0
1582540473167,2953499,0,5,0
1582540473267,2952598,0,5,0
1582540473367,2950953,0,5,0
1582540473467,2949909,0,5,0
1582540473566,2949283,0,5,0
1582540473667,2946503,0,5,0
1582540473768,2944102,0,5,0
1582540473866,2943156,0,5,0
1582540473966,2941232,0,5,0
1582540474070,2939271,0,5,0
1582540474167,2937514,0,5,0
1582540474267,2935873,0,5,0
1582540474367,2933295,0,5,0
1582540474469,2930754,0,5,0
1582540474568,2928422,0,5,0
1582540474667,2926511,0,5,0
1582540474767,2924794,0,5,0
1582540474867,2923303,0,5,0
1582540474968,2920324,0,5,0
1582540475071,2918936,0,5,0
1582540475168,2915972,0,5,0
1582540475268,2914702,0,5,0
1582540475367,2914193,0,5,0
1582540475468,2913393,0,5,0
1582540475568,2912077,0,5,0
1582540475675,2911091,0,5,0
1582540475768,2908089,0,5,0
1582540475868,2906801,0,5,0
1582540475968,2906184,0,5,0
1582540476072,2904937,0,5,0
1582540476169,2904163,0,5,0
1582540476269,2903344,0,5,0
1582540476369,2900025,0,5,0
1582540476469,2898501,0,5,0
1582540476569,2897285,0,5,0
1582540476668,2896297,0,5,0
1582540476768,2895639,0,5,0
1582540476869,2894604,0,5,0
1582540476968,2892333,0,5,0
1582540477071,2890840,0,5,0
1582540477168,2890058,0,5,0
1582540477268,2889135,0,5,0
1582540477368,2888201,0,5,0
1582540477469,2886854,0,5,0
1582540477570,2884643,0,5,0
1582540477671,2882104,0,5,0
1582540477769,2880578,0,5,0
1582540477869,2878994,0,5,0
1582540477969,2877867,0,5,0
1582540478069,2877394,0,5,0
1582540478169,2876383,0,5,0
1582540478269,2874099,0,5,0
1582540478369,2872258,0,5,0
1582540478469,2871136,0,5,0
1582540478569,2869462,0,5,0
1582540478669,2868200,0,5,0
1582540478769,2867271,0,5,0
1582540478869,2865399,0,5,0
1582540478969,2863121,0,5,0
1582540479069,2861298,0,5,0
1582540479169,2859645,0,5,0
1582540479269,2858288,0,5,0
1582540479369,2856999,0,5,0
1582540479469,2854855,0,5,0
1582540479570,2852254,0,5,0
1582540479669,2850415,0,5,0
1582540479769,2848883,0,5,0
1582540479870,2847786,0,5,0
1582540479970,2846698,0,5,0
1582540480070,2846102,0,5,0
1582540480170,2844233,0,5,0
1582540480270,2842336,0,5,0
1582540480370,2840957,0,5,0
1582540480471,2839977,0,5,0
1582540480570,2838871,0,5,0
1582540480670,2838184,0,5,0
1582540480771,2837176,0,5,0
1582540480870,2835438,0,5,0
1582540480970,2834183,0,5,0
1582540481071,2833312,0,5,0
1582540481171,2832269,0,5,0
1582540481270,2831462,0,5,0
1582540481371,2830774,0,5,0
1582540481471,2829287,0,5,0
1582540481571,2827446,0,5,0
1582540481671,2826446,0,5,0
1582540481771,2825393,0,5,0
1582540481871,2824454,0,5,0
1582540481971,2823798,0,5,0
1582540482081,2822666,0,5,0
1582540482181,2821041,0,5,0
1582540482282,2820113,0,5,0
1582540482381,2819341,0,5,0
1582540482482,2818584,0,5,0
1582540482582,2818066,0,5,0
1582540482687,2817262,0,5,0
1582540482782,2815785,0,5,0
1582540482882,2814633,0,5,0
1582540482982,2813779,0,5,0
1582540483082,2812914,0,5,0
1582540483173,2812329,0,5,0
1582540483272,2811692,0,5,0
1582540483372,2810317,0,5,0
1582540483472,2808905,0,5,0
1582540483572,2807774,0,5,0
1582540483672,2806856,0,5,0
1582540483772,2806082,0,5,0
1582540483872,2805520,0,5,0
1582540483972,2804373,0,5,0
1582540484073,2802786,0,5,0
1582540484173,2801487,0,5,0
1582540484273,2800560,0,5,0
1582540484373,2799763,0,5,0
1582540484473,2799267,0,5,0
1582540484573,2798791,0,5,0
1582540484673,2797295,0,5,0
1582540484773,2796090,0,5,0
1582540484873,2795322,0,5,0
1582540484973,2794978,0,5,0
1582540485073,2794657,0,5,0
1582540485173,2794884,0,5,0
1582540485273,2794627,0,5,0
1582540485373,2793362,0,5,0
1582540485473,2792969,0,5,0
1582540485574,2793022,0,5,0
1582540485673,2793147,0,5,0
1582540485773,2794028,0,5,0
1582540485884,2795139,0,5,0
1582540485984,2795530,0,5,0
1582540486084,2794705,0,5,0
1582540486184,2794760,0,5,0
1582540486284,2795516,0,5,0
1582540486384,2795467,0,5,0
1582540486485,2795467,0,5,0
1582540486584,2795841,0,5,0
1582540486685,2796277,0,5,0
1582540486785,2796491,0,5,0
1582540486884,2796987,0,5,0
1582540486985,2797429,0,5,0
1582540487085,2797958,0,5,0
1582540487185,2798882,0,5,0
1582540487285,2799569,0,5,0
1582540487385,2798928,0,5,0
1582540487485,2798131,0,5,0
1582540487585,2797328,0,5,0
1582540487685,2797141,0,5,0
1582540487785,2797472,0,5,0
1582540487885,2799050,0,5,0
1582540487985,2799536,0,5,0
1582540488085,2798802,0,5,0
1582540488187,2798206,0,5,0
1582540488286,2798242,0,5,0
1582540488385,2798263,0,5,0
1582540488487,2798832,0,5,0
1582540488586,2800038,0,5,0
1582540488686,2800216,0,5,0
1582540488786,2799304,0,5,0
1582540488886,2799369,0,5,0
1582540488986,2799516,0,5,0
1582540489088,2799873,0,5,0
1582540489176,2800869,0,5,0
1582540489276,2801024,0,5,0
1582540489376,2799986,0,5,0
1582540489476,2799466,0,5,0
1582540489576,2798821,0,5,0
1582540489676,2798345,0,5,0
1582540489776,2797954,0,5,0
1582540489876,2797698,0,5,0
1582540489976,2796800,0,5,0
1582540490077,2796236,0,5,0
1582540490177,2796193,0,5,0
1582540490276,2796052,0,5,0
1582540490377,2796677,0,5,0
1582540490477,2797480,0,5,0
1582540490577,2796432,0,5,0
1582540490677,2795569,0,5,0
1582540490777,2796398,0,5,0
1582540490877,2797210,0,5,0
1582540490977,2798155,0,5,0
1582540491078,2799288,0,5,0
1582540491177,2799154,0,5,0
1582540491277,2798038,0,5,0
1582540491377,2797639,0,5,0
1582540491477,2797381,0,5,0
1582540491578,2797519,0,5,0
1582540491677,2798337,0,5,0
1582540491777,2799258,0,5,0
1582540491878,2798747,0,5,0
1582540491978,2798766,0,5,0
1582540492078,2799531,0,5,0
1582540492178,2800241,0,5,0
1582540492278,2801149,0,5,0
1582540492378,2802193,0,5,0
1582540492478,2802785,0,5,0
1582540492578,2801752,0,5,0
1582540492689,2801365,0,5,0
1582540492789,2801371,0,5,0
1582540492888,2801250,0,5,0
1582540492988,2801786,0,5,0
1582540493089,2802237,0,5,0
1582540493179,2801682,0,5,0
1582540493279,2801017,0,5,0
1582540493379,2801111,0,5,0
1582540493479,2801403,0,5,0
1582540493579,2802013,0,5,0
1582540493679,2802925,0,5,0
1582540493779,2803441,0,5,0
1582540493879,2802814,0,5,0
1582540493979,2802534,0,5,0
1582540494079,2802905,0,5,0
1582540494179,2803301,0,5,0
1582540494279,2803808,0,5,0
1582540494379,2804763,0,5,0
1582540494479,2805365,0,5,0
1582540494580,2804765,0,5,0
1582540494679,2804114,0,5,0
1582540494779,2804271,0,5,0
1582540494880,2804399,0,5,0
1582540494980,2804794,0,5,0
1582540495080,2805681,0,5,0
1582540495180,2806544,0,5,0
1582540495280,2806320,0,5,0
1582540495380,2805824,0,5,0
1582540495480,2806102,0,5,0
1582540495580,2806718,0,5,0
1582540495680,2807474,0,5,0
1582540495782,2808632,0,5,0
1582540495880,2809592,0,5,0
1582540495990,2809560,0,5,0
1582540496091,2808585,0,5,0
1582540496191,2808406,0,5,0
1582540496291,2808452,0,5,0
1582540496391,2808721,0,5,0
1582540496491,2809497,0,5,0
1582540496591,2810330,0,5,0
1582540496691,2810027,0,5,0
1582540496791,2808837,0,5,0
1582540496891,2808734,0,5,0
1582540496991,2808777,0,5,0
1582540497092,2808621,0,5,0
1582540497192,2807796,0,5,0
1582540497292,2805485,0,5,0
1582540497391,2803516,0,5,0
1582540497492,2801468,0,5,0
1582540497592,2799916,0,5,0
1582540497692,2799634,0,5,0
1582540497792,2799884,0,5,0
1582540497892,2800982,0,5,0
1582540497992,2801337,0,5,0
1582540498093,2800721,0,5,0
1582540498193,2800620,0,5,0
1582540498292,2801101,0,5,0
1582540498392,2801741,0,5,0
1582540498492,2802886,0,5,0
1582540498592,2803962,0,5,0
1582540498693,2802091,0,5,0
1582540498792,2801093,0,5,0
1582540498892,2802455,0,5,0
1582540498993,2806601,0,5,0
1582540499093,2803081,0,5,0
1582540499183,2800752,0,5,0
1582540499282,2800763,0,5,0
1582540499383,2800002,0,5,0
1582540499483,2798883,0,5,0
1582540499583,2797365,0,5,0
1582540499684,2796704,0,5,0
1582540499783,2798999,0,5,0
1582540499883,2802336,0,5,0
1582540499983,2805127,0,5,0
1582540500083,2807638,0,5,0
1582540500183,2809716,0,5,0
1582540500284,2811670,0,5,0
1582540500383,2810966,0,5,0
1582540500483,2807834,0,5,0
1582540500584,2813313,0,5,0
1582540500684,2816733,0,5,0
1582540500783,2818579,0,5,0
1582540500884,2819966,0,5,0
1582540500984,2821419,0,5,0
1582540501084,2822671,0,5,0
1582540501184,2823941,0,5,0
1582540501284,2824433,0,5,0
1582540501384,2825697,0,5,0
1582540501484,2826494,0,5,0
1582540501584,2827594,0,5,0
1582540501684,2828467,0,5,0
1582540501784,2827253,0,5,0
1582540501884,2838364,0,5,0
1582540501994,2853318,0,5,0
1582540502095,2863945,0,5,0
1582540502194,2869562,0,5,0
1582540502295,2881598,0,5,0
1582540502395,2891626,0,5,0
1582540502495,2893039,0,5,0
1582540502585,2904714,0,5,0
1582540502685,2917312,0,5,0
1582540502785,2925182,0,5,0
1582540502895,2929148,0,5,0
1582540502996,2927796,0,5,0
1582540503095,2926243,0,5,0
1582540503186,2926551,0,5,0
1582540503286,2928946,0,5,0
1582540503386,2930893,0,5,0
1582540503486,2931033,0,5,0
1582540503586,2930164,0,5,0
1582540503686,2929192,0,5,0
1582540503786,2929694,0,5,0
1582540503887,2928599,0,5,0
1582540503986,2926144,0,5,0
1582540504087,2923865,0,5,0
1582540504189,2922000,0,5,0
1582540504287,2920161,0,5,0
1582540504387,2917995,0,5,0
1582540504487,2916094,0,5,0
1582540504587,2917155,0,5,0
1582540504687,2916745,0,5,0
1582540504788,2914878,0,5,0
1582540504887,2911413,0,5,0
1582540504988,2909285,0,5,0
1582540505088,2906869,0,5,0
1582540505188,2904583,0,5,0
1582540505287,2902456,0,5,0
1582540505388,2900358,0,5,0
1582540505488,2898491,0,5,0
1582540505587,2896728,0,5,0
1582540505688,2894108,0,5,0
1582540505787,2893077,0,5,0
1582540505887,2890824,0,5,0
1582540505987,2888564,0,5,0
1582540506087,2886624,0,5,0
1582540506188,2884619,0,5,0
1582540506288,2882053,0,5,0
1582540506387,2878879,0,5,0
1582540506488,2876270,0,5,0
1582540506589,2873760,0,5,0
1582540506687,2871415,0,5,0
1582540506788,2868292,0,5,0
1582540506889,2864933,0,5,0
1582540506989,2861561,0,5,0
1582540507089,2858722,0,5,0
1582540507190,2856058,0,5,0
1582540507289,2854263,0,5,0
1582540507389,2852498,0,5,0
1582540507489,2849202,0,5,0
1582540507589,2846511,0,5,0
1582540507689,2844690,0,5,0
1582540507790,2843201,0,5,0
1582540507889,2841880,0,5,0
1582540507989,2840400,0,5,0
1582540508090,2837256,0,5,0
1582540508190,2835039,0,5,0
1582540508290,2834003,0,5,0
1582540508390,2832650,0,5,0
1582540508490,2831491,0,5,0
1582540508590,2834366,0,5,0
1582540508690,2844187,0,5,0
1582540508790,2835089,0,5,0
1582540508890,2828835,0,5,0
1582540508990,2824232,0,5,0
1582540509090,2821642,0,5,0
1582540509190,2821164,0,5,0
1582540509290,2822836,0,5,0
1582540509390,2825016,0,5,0
1582540509490,2820467,0,5,0
1582540509590,2816794,0,5,0
1582540509690,2813907,0,5,0
1582540509789,2811729,0,5,0
1582540509890,2810068,0,5,0
1582540509990,2807667,0,5,0
1582540510090,2804410,0,5,0
1582540510190,2802555,0,5,0
1582540510290,2801376,0,5,0
1582540510390,2800336,0,5,0
1582540510491,2799946,0,5,0
1582540510590,2799094,0,5,0
1582540510690,2796483,0,5,0
1582540510801,2795203,0,5,0
1582540510890,2794105,0,5,0
1582540511001,2793700,0,5,0
1582540511101,2794258,0,5,0
1582540511201,2796260,0,5,0
1582540511301,2795581,0,5,0
1582540511401,2795298,0,5,0
1582540511501,2795993,0,5,0
1582540511601,2796532,0,5,0
1582540511701,2797532,0,5,0
1582540511801,2798273,0,5,0
1582540511901,2796206,0,5,0
1582540512001,2794908,0,5,0
1582540512101,2794929,0,5,0
1582540512201,2795042,0,5,0
1582540512302,2795001,0,5,0
1582540512401,2795131,0,5,0
1582540512502,2794696,0,5,0
1582540512602,2793658,0,5,0
1582540512702,2794030,0,5,0
1582540512802,2794657,0,5,0
1582540512902,2795355,0,5,0
1582540513002,2796301,0,5,0
1582540513092,2797215,0,5,0
1582540513193,2796238,0,5,0
1582540513292,2795839,0,5,0
1582540513392,2796510,0,5,0
1582540513492,2796929,0,5,0
1582540513592,2797121,0,5,0
1582540513692,2797733,0,5,0
1582540513792,2798665,0,5,0
1582540513892,2798185,0,5,0
1582540513992,2798798,0,5,0
1582540514093,2800596,0,5,0
1582540514193,2801480,0,5,0
1582540514292,2802175,0,5,0
1582540514393,2802782,0,5,0
1582540514493,2802455,0,5,0
1582540514593,2801713,0,5,0
1582540514693,2801404,0,5,0
1582540514793,2801590,0,5,0
1582540514893,2801963,0,5,0
1582540514993,2802922,0,5,0
1582540515093,2803908,0,5,0
1582540515193,2803568,0,5,0
1582540515293,2803522,0,5,0
1582540515393,2803926,0,5,0
1582540515493,2804309,0,5,0
1582540515594,2804720,0,5,0
1582540515693,2804912,0,5,0
1582540515793,2804494,0,5,0
1582540515894,2803828,0,5,0
1582540515994,2804126,0,5,0
1582540516094,2804241,0,5,0
1582540516204,2804662,0,5,0
1582540516304,2805427,0,5,0
1582540516404,2805314,0,5,0
1582540516505,2804699,0,5,0
1582540516604,2804833,0,5,0
1582540516706,2805359,0,5,0
1582540516805,2805924,0,5,0
1582540516904,2806410,0,5,0
1582540517005,2806903,0,5,0
1582540517105,2806528,0,5,0
1582540517205,2806468,0,5,0
1582540517305,2806821,0,5,0
1582540517405,2807345,0,5,0
1582540517505,2808076,0,5,0
1582540517605,2808938,0,5,0
1582540517705,2809100,0,5,0
1582540517805,2808122,0,5,0
1582540517905,2808262,0,5,0
1582540518006,2808653,0,5,0
1582540518106,2809262,0,5,0
1582540518207,2810495,0,5,0
1582540518306,2811591,0,5,0
1582540518405,2811177,0,5,0
1582540518507,2810699,0,5,0
1582540518606,2810910,0,5,0
1582540518706,2811280,0,5,0
1582540518806,2811627,0,5,0
1582540518906,2812522,0,5,0
1582540519006,2813508,0,5,0
1582540519108,2813056,0,5,0
1582540519196,2812825,0,5,0
1582540519296,2813364,0,5,0
1582540519396,2813801,0,5,0
1582540519496,2814598,0,5,0
1582540519596,2815623,0,5,0
1582540519696,2815783,0,5,0
1582540519797,2814816,0,5,0
1582540519896,2814427,0,5,0
1582540519998,2814315,0,5,0
1582540520107,2814749,0,5,0
1582540520196,2815454,0,5,0
1582540520295,2816264,0,5,0
1582540520395,2815907,0,5,0
1582540520497,2814875,0,5,0
1582540520595,2814762,0,5,0
1582540520696,2814757,0,5,0
1582540520796,2815300,0,5,0
1582540520906,2816708,0,5,0
1582540521006,2817991,0,5,0
1582540521107,2817721,0,5,0
1582540521207,2817313,0,5,0
1582540521307,2817979,0,5,0
1582540521407,2818925,0,5,0
1582540521507,2819846,0,5,0
1582540521607,2820900,0,5,0
1582540521707,2821724,0,5,0
1582540521807,2821246,0,5,0
1582540521907,2821189,0,5,0
1582540522007,2821617,0,5,0
1582540522109,2821873,0,5,0
1582540522208,2822786,0,5,0
1582540522308,2823724,0,5,0
1582540522408,2822422,0,5,0
1582540522509,2821282,0,5,0
1582540522608,2821992,0,5,0
1582540522709,2822652,0,5,0
1582540522809,2823419,0,5,0
1582540522899,2824607,0,5,0
1582540522998,2825083,0,5,0
1582540523099,2823832,0,5,0
1582540523199,2822885,0,5,0
1582540523299,2822593,0,5,0
1582540523399,2822865,0,5,0
1582540523499,2823320,0,5,0
1582540523599,2824444,0,5,0
1582540523699,2829006,0,5,0
1582540523799,2831464,0,5,0
1582540523899,2834472,0,5,0
1582540523999,2831845,0,5,0
1582540524099,2828556,0,5,0
1582540524199,2836613,0,5,0
1582540524300,2845721,0,5,0
1582540524399,2848094,0,5,0
1582540524499,2847552,0,5,0
1582540524600,2847434,0,5,0
1582540524699,2847915,0,5,0
1582540524800,2848587,0,5,0
1582540524900,2849474,0,5,0
1582540525000,2850438,0,5,0
1582540525100,2849938,0,5,0
1582540525200,2848795,0,5,0
1582540525300,2848435,0,5,0
1582540525400,2848541,0,5,0
1582540525500,2848695,0,5,0
1582540525600,2849498,0,5,0
1582540525700,2850218,0,5,0
1582540525801,2850996,0,5,0
1582540525911,2849527,0,5,0
1582540526011,2848683,0,5,0
1582540526111,2848474,0,5,0
1582540526211,2848592,0,5,0
1582540526311,2849299,0,5,0
1582540526411,2850487,0,5,0
1582540526511,2851584,0,5,0
1582540526611,2851583,0,5,0
1582540526711,2851218,0,5,0
1582540526811,2851905,0,5,0
1582540526911,2852372,0,5,0
1582540527012,2853496,0,5,0
1582540527112,2855041,0,5,0
1582540527211,2857332,0,5,0
1582540527312,2858105,0,5,0
1582540527411,2857126,0,5,0
1582540527512,2857359,0,5,0
1582540527612,2857889,0,5,0
1582540527712,2858542,0,5,0
1582540527812,2859701,0,5,0
1582540527912,2861011,0,5,0
1582540528012,2860558,0,5,0
1582540528112,2857566,0,5,0
1582540528213,2855653,0,5,0
1582540528312,2863658,0,5,0
1582540528412,2871382,0,5,0
1582540528513,2867749,0,5,0
1582540528612,2863135,0,5,0
1582540528713,2857314,0,5,0
1582540528813,2854955,0,5,0
1582540528912,2860361,0,5,0
1582540529013,2870453,0,5,0
1582540529113,2886227,0,5,0
1582540529203,2896400,0,5,0
1582540529302,2901473,0,5,0
1582540529403,2906867,0,5,0
1582540529503,2910594,0,5,0
1582540529603,2911071,0,5,0
1582540529703,2912040,0,5,0
1582540529803,2911067,0,5,0
1582540529903,2908135,0,5,0
1582540530003,2906438,0,5,0
1582540530103,2903619,0,5,0
1582540530203,2901251,0,5,0
1582540530303,2898660,0,5,0
1582540530403,2896098,0,5,0
1582540530503,2893472,0,5,0
1582540530604,2890650,0,5,0
1582540530703,2886784,0,5,0
1582540530804,2882823,0,5,0
1582540530904,2879520,0,5,0
1582540531004,2876481,0,5,0
1582540531104,2874178,0,5,0
1582540531204,2872364,0,5,0
1582540531304,2868825,0,5,0
1582540531404,2865529,0,5,0
1582540531504,2862925,0,5,0
1582540531604,2860703,0,5,0
1582540531704,2859298,0,5,0
1582540531805,2858488,0,5,0
1582540531904,2856153,0,5,0
1582540532004,2852883,0,5,0
1582540532105,2850729,0,5,0
1582540532215,2849343,0,5,0
1582540532305,2848572,0,5,0
1582540532415,2848171,0,5,0
1582540532518,2847040,0,5,0
1582540532605,2843819,0,5,0
1582540532705,2841285,0,5,0
1582540532805,2839774,0,5,0
1582540532907,2838340,0,5,0
1582540533006,2837054,0,5,0
1582540533107,2836191,0,5,0
1582540533206,2833251,0,5,0
1582540533306,2830340,0,5,0
1582540533406,2829088,0,5,0
1582540533506,2828077,0,5,0
1582540533606,2827152,0,5,0
1582540533706,2826800,0,5,0
1582540533806,2825429,0,5,0
1582540533906,2823088,0,5,0
1582540534008,2822623,0,5,0
1582540534106,2822335,0,5,0
1582540534208,2821605,0,5,0
1582540534306,2821508,0,5,0
1582540534406,2821466,0,5,0
1582540534507,2819768,0,5,0
1582540534606,2817996,0,5,0
1582540534706,2817405,0,5,0
1582540534808,2815680,0,5,0
1582540534907,2815335,0,5,0
1582540535007,2815877,0,5,0
1582540535108,2814552,0,5,0
1582540535207,2813393,0,5,0
1582540535307,2813867,0,5,0
1582540535407,2814304,0,5,0
1582540535507,2814322,0,5,0
1582540535607,2814159,0,5,0
1582540535708,2813223,0,5,0
1582540535807,2813007,0,5,0
1582540535907,2813667,0,5,0
1582540536008,2814470,0,5,0
1582540536108,2815439,0,5,0
1582540536208,2816737,0,5,0
1582540536308,2817257,0,5,0
1582540536408,2817032,0,5,0
1582540536508,2817627,0,5,0
1582540536608,2818274,0,5,0
1582540536717,2817545,0,5,0
1582540536808,2815772,0,5,0
1582540536908,2814399,0,5,0
1582540537009,2812823,0,5,0
1582540537109,2814098,0,5,0
1582540537209,2818254,0,5,0
1582540537309,2824381,0,5,0
1582540537409,2826163,0,5,0
1582540537509,2824905,0,5,0
1582540537608,2823555,0,5,0
1582540537708,2821782,0,5,0
1582540537809,2821305,0,5,0
1582540537909,2820378,0,5,0
1582540538009,2820014,0,5,0
1582540538109,2819904,0,5,0
1582540538209,2819874,0,5,0
1582540538309,2821117,0,5,0
1582540538409,2822514,0,5,0
1582540538509,2823780,0,5,0
1582540538610,2827835,0,5,0
1582540538710,2828536,0,5,0
1582540538810,2829196,0,5,0
1582540538910,2831369,0,5,0
1582540539011,2832849,0,5,0
1582540539111,2834004,0,5,0
1582540539210,2835558,0,5,0
1582540539311,2836021,0,5,0
1582540539410,2836388,0,5,0
1582540539510,2837056,0,5,0
1582540539611,2837738,0,5,0
1582540539710,2839339,0,5,0
1582540539810,2841947,0,5,0
1582540539911,2843552,0,5,0
1582540540011,2843063,0,5,0
1582540540111,2842694,0,5,0
1582540540211,2842966,0,5,0
1582540540311,2843785,0,5,0
1582540540411,2845327,0,5,0
1582540540512,2846668,0,5,0
1582540540611,2846941,0,5,0
1582540540711,2845905,0,5,0
1582540540822,2845359,0,5,0
1582540540911,2844341,0,5,0
1582540541022,2846655,0,5,0
1582540541122,2855100,0,5,0
1582540541222,2860815,0,5,0
1582540541322,2870044,0,5,0
1582540541422,2881060,0,5,0
1582540541522,2892704,0,5,0
1582540541622,2903863,0,5,0
1582540541722,2913613,0,5,0
1582540541821,2919464,0,5,0
1582540541921,2923403,0,5,0
1582540542022,2926107,0,5,0
1582540542121,2928324,0,5,0
1582540542221,2928682,0,5,0
1582540542322,2926802,0,5,0
1582540542422,2928261,0,5,0
1582540542522,2933941,0,5,0
1582540542622,2938209,0,5,0
1582540542722,2938458,0,5,0
1582540542822,2936687,0,5,0
1582540542922,2934760,0,5,0
1582540543022,2932809,0,5,0
1582540543112,2930607,0,5,0
1582540543212,2929867,0,5,0
1582540543312,2929323,0,5,0
1582540543412,2931826,0,5,0
1582540543512,2934496,0,5,0
1582540543612,2931792,0,5,0
1582540543712,2929717,0,5,0
1582540543812,2928637,0,5,0
1582540543912,2927598,0,5,0
1582540544012,2925435,0,5,0
1582540544113,2923542,0,5,0
1582540544213,2922202,0,5,0
1582540544313,2920540,0,5,0
1582540544413,2919257,0,5,0
1582540544513,2918031,0,5,0
1582540544613,2916596,0,5,0
1582540544713,2915314,0,5,0
1582540544813,2914129,0,5,0
1582540544913,2911947,0,5,0
1582540545014,2909863,0,5,0
1582540545114,2907966,0,5,0
1582540545213,2906233,0,5,0
1582540545314,2904776,0,5,0
1582540545413,2903533,0,5,0
1582540545513,2902104,0,5,0
1582540545614,2899613,0,5,0
1582540545714,2897011,0,5,0
1582540545814,2895200,0,5,0
1582540545914,2893508,0,5,0
1582540546024,2891987,0,5,0
1582540546124,2891108,0,5,0
1582540546225,2890228,0,5,0
1582540546324,2888281,0,5,0
1582540546424,2885774,0,5,0
1582540546525,2883658,0,5,0
1582540546624,2882127,0,5,0
1582540546726,2881011,0,5,0
1582540546825,2879986,0,5,0
1582540546925,2879560,0,5,0
1582540547027,2879423,0,5,0
1582540547116,2877786,0,5,0
1582540547215,2875071,0,5,0
1582540547315,2873854,0,5,0
1582540547415,2873714,0,5,0
1582540547515,2873506,0,5,0
1582540547615,2873806,0,5,0
1582540547715,2874351,0,5,0
1582540547815,2874729,0,5,0
1582540547915,2874925,0,5,0
1582540548015,2873399,0,5,0
1582540548116,2872235,0,5,0
1582540548217,2871833,0,5,0
1582540548316,2871555,0,5,0
1582540548416,2871687,0,5,0
1582540548517,2872033,0,5,0
1582540548616,2872725,0,5,0
1582540548716,2873423,0,5,0
1582540548816,2871882,0,5,0
1582540548916,2870919,0,5,0
1582540549026,2870720,0,5,0
1582540549128,2870510,0,5,0
1582540549216,2870964,0,5,0
1582540549316,2872000,0,5,0
1582540549426,2873255,0,5,0
1582540549527,2873987,0,5,0
1582540549626,2873336,0,5,0
1582540549726,2873346,0,5,0
1582540549827,2873896,0,5,0
1582540549927,2874717,0,5,0
1582540550027,2875454,0,5,0
1582540550127,2876503,0,5,0
1582540550227,2876704,0,5,0
1582540550327,2874965,0,5,0
1582540550427,2873659,0,5,0
1582540550517,2873464,0,5,0
1582540550617,2872845,0,5,0
1582540550717,2872681,0,5,0
1582540550817,2873040,0,5,0
1582540550917,2873308,0,5,0
1582540551017,2871754,0,5,0
1582540551118,2870418,0,5,0
1582540551217,2870069,0,5,0
1582540551317,2869688,0,5,0
1582540551417,2869513,0,5,0
1582540551517,2869874,0,5,0
1582540551618,2869410,0,5,0
1582540551718,2867864,0,5,0
1582540551817,2867557,0,5,0
1582540551918,2867756,0,5,0
1582540552018,2867651,0,5,0
1582540552128,2867837,0,5,0
1582540552228,2868102,0,5,0
1582540552328,2867225,0,5,0
1582540552428,2865839,0,5,0
1582540552529,2865776,0,5,0
1582540552629,2865800,0,5,0
1582540552729,2866199,0,5,0
1582540552829,2866856,0,5,0
1582540552929,2868003,0,5,0
1582540553029,2867674,0,5,0
1582540553119,2866742,0,5,0
1582540553219,2867034,0,5,0
1582540553319,2867703,0,5,0
1582540553419,2868391,0,5,0
1582540553519,2869384,0,5,0
1582540553619,2870325,0,5,0
1582540553719,2870174,0,5,0
1582540553819,2868670,0,5,0
1582540553919,2868433,0,5,0
1582540554019,2868786,0,5,0
1582540554119,2869188,0,5,0
1582540554219,2870215,0,5,0
1582540554319,2871436,0,5,0
1582540554419,2872357,0,5,0
1582540554520,2871111,0,5,0
1582540554620,2870470,0,5,0
1582540554720,2870559,0,5,0
1582540554820,2870454,0,5,0
1582540554920,2870475,0,5,0
1582540555020,2870548,0,5,0
1582540555120,2870834,0,5,0
1582540555220,2869631,0,5,0
1582540555320,2868863,0,5,0
1582540555420,2868849,0,5,0
1582540555520,2868753,0,5,0
1582540555620,2868934,0,5,0
1582540555720,2869174,0,5,0
1582540555820,2869729,0,5,0
1582540555920,2868332,0,5,0
1582540556020,2867584,0,5,0
1582540556121,2868515,0,5,0
1582540556220,2869983,0,5,0
1582540556320,2871832,0,5,0
1582540556421,2873961,0,5,0
1582540556531,2876086,0,5,0
1582540556631,2875699,0,5,0
1582540556731,2875384,0,5,0
1582540556831,2875703,0,5,0
1582540556931,2875970,0,5,0
1582540557032,2876596,0,5,0
1582540557132,2877466,0,5,0
1582540557232,2878025,0,5,0
1582540557332,2877066,0,5,0
1582540557432,2876557,0,5,0
1582540557532,2876890,0,5,0
1582540557632,2877090,0,5,0
1582540557732,2877540,0,5,0
1582540557832,2878665,0,5,0
1582540557932,2879118,0,5,0
1582540558032,2878040,0,5,0
1582540558132,2877525,0,5,0
1582540558233,2877400,0,5,0
1582540558332,2877484,0,5,0
1582540558432,2877819,0,5,0
1582540558533,2878438,0,5,0
1582540558633,2878306,0,5,0
1582540558734,2877057,0,5,0
1582540558833,2876840,0,5,0
1582540558933,2876896,0,5,0
1582540559033,2877562,0,5,0
1582540559133,2878372,0,5,0
1582540559223,2879635,0,5,0
1582540559323,2879219,0,5,0
1582540559423,2878122,0,5,0
1582540559523,2877727,0,5,0
1582540559623,2877539,0,5,0
1582540559723,2877745,0,5,0
1582540559823,2878358,0,5,0
1582540559923,2878931,0,5,0
1582540560023,2877815,0,5,0
1582540560124,2876750,0,5,0
1582540560223,2876533,0,5,0
1582540560322,2876576,0,5,0
1582540560422,2876726,0,5,0
1582540560522,2877445,0,5,0
1582540560622,2877501,0,5,0
1582540560722,2876231,0,5,0
1582540560822,2875248,0,5,0
1582540560933,2875117,0,5,0
1582540561033,2874870,0,5,0
1582540561133,2874877,0,5,0
1582540561233,2875223,0,5,0
1582540561333,2874892,0,5,0
1582540561433,2873368,0,5,0
1582540561533,2873062,0,5,0
1582540561633,2873452,0,5,0
1582540561733,2874097,0,5,0
1582540561833,2874872,0,5,0
1582540561933,2875847,0,5,0
1582540562033,2876063,0,5,0
1582540562134,2874992,0,5,0
1582540562233,2874897,0,5,0
1582540562333,2874919,0,5,0
1582540562434,2875232,0,5,0
1582540562534,2875733,0,5,0
1582540562634,2876716,0,5,0
1582540562734,2876094,0,5,0
1582540562834,2874626,0,5,0
1582540562934,2873840,0,5,0
1582540563034,2873284,0,5,0
1582540563125,2872968,0,5,0
1582540563224,2873114,0,5,0
1582540563324,2873663,0,5,0
1582540563424,2873170,0,5,0
1582540563524,2872138,0,5,0
1582540563624,2872078,0,5,0
1582540563724,2872097,0,5,0
1582540563824,2872154,0,5,0
1582540563924,2872843,0,5,0
1582540564024,2873592,0,5,0
1582540564124,2872712,0,5,0
1582540564225,2872188,0,5,0
1582540564325,2872385,0,5,0
1582540564425,2872369,0,5,0
1582540564525,2872796,0,5,0
1582540564625,2873344,0,5,0
1582540564725,2873475,0,5,0
1582540564825,2872183,0,5,0
1582540564925,2871704,0,5,0
1582540565025,2871567,0,5,0
1582540565127,2871532,0,5,0
1582540565226,2872035,0,5,0
1582540565325,2871620,0,5,0
1582540565426,2868773,0,5,0
1582540565527,2867326,0,5,0
1582540565626,2867184,0,5,0
1582540565727,2866870,0,5,0
1582540565826,2867106,0,5,0
1582540565926,2868058,0,5,0
1582540566027,2868875,0,5,0
1582540566127,2868146,0,5,0
1582540566227,2867848,0,5,0
1582540566327,2867357,0,5,0
1582540566427,2866910,0,5,0
1582540566527,2867220,0,5,0
1582540566628,2867886,0,5,0
1582540566729,2868002,0,5,0
1582540566829,2866793,0,5,0
1582540566929,2866450,0,5,0
1582540567029,2866231,0,5,0
1582540567129,2866647,0,5,0
1582540567229,2867383,0,5,0
1582540567328,2868148,0,5,0
1582540567428,2866890,0,5,0
1582540567528,2865795,0,5,0
1582540567628,2861762,0,5,0
1582540567728,2859751,0,5,0
1582540567829,2859626,0,5,0
1582540567929,2860262,0,5,0
1582540568029,2860588,0,5,0
1582540568129,2859958,0,5,0
1582540568229,2859336,0,5,0
1582540568329,2859063,0,5,0
1582540568429,2858850,0,5,0
1582540568528,2858963,0,5,0
1582540568629,2858939,0,5,0
1582540568730,2855623,0,5,0
1582540568829,2850950,0,5,0
1582540568930,2848017,0,5,0
1582540569030,2848185,0,5,0
1582540569130,2849030,0,5,0
1582540569230,2850455,0,5,0
1582540569330,2850838,0,5,0
1582540569430,2850326,0,5,0
1582540569529,2850069,0,5,0
1582540569631,2849869,0,5,0
1582540569730,2849905,0,5,0
1582540569830,2850207,0,5,0
1582540569931,2850775,0,5,0
1582540570031,2850653,0,5,0
1582540570131,2849686,0,5,0
1582540570231,2849381,0,5,0
1582540570331,2849432,0,5,0
1582540570430,2850094,0,5,0
1582540570530,2851116,0,5,0
1582540570631,2851994,0,5,0
1582540570731,2851611,0,5,0
1582540570831,2851089,0,5,0
1582540570941,2851130,0,5,0
1582540571041,2851672,0,5,0
1582540571142,2852259,0,5,0
1582540571241,2852900,0,5,0
1582540571341,2853779,0,5,0
1582540571442,2853458,0,5,0
1582540571540,2853239,0,5,0
1582540571641,2853557,0,5,0
1582540571742,2853901,0,5,0
1582540571841,2854502,0,5,0
1582540571942,2855085,0,5,0
1582540572042,2855724,0,5,0
1582540572142,2855082,0,5,0
1582540572242,2854439,0,5,0
1582540572343,2854270,0,5,0
1582540572442,2854009,0,5,0
1582540572541,2854259,0,5,0
1582540572644,2855528,0,5,0
1582540572742,2857274,0,5,0
1582540572842,2857518,0,5,0
1582540572943,2857868,0,5,0
1582540573043,2858546,0,5,0
1582540573133,2859457,0,5,0
1582540573234,2860375,0,5,0
1582540573333,2861613,0,5,0
1582540573433,2862787,0,5,0
1582540573532,2862627,0,5,0
1582540573632,2862414,0,5,0
1582540573732,2862003,0,5,0
1582540573833,2861721,0,5,0
1582540573932,2862270,0,5,0
1582540574032,2863712,0,5,0
1582540574133,2863885,0,5,0
1582540574233,2862400,0,5,0
1582540574332,2859960,0,5,0
1582540574433,2855377,0,5,0
1582540574532,2858158,0,5,0
1582540574633,2861837,0,5,0
1582540574733,2871279,0,5,0
1582540574833,2884625,0,5,0
1582540574933,2896086,0,5,0
1582540575033,2901010,0,5,0
1582540575134,2903997,0,5,0
1582540575233,2907906,0,5,0
1582540575333,2910442,0,5,0
1582540575433,2911717,0,5,0
1582540575533,2915040,0,5,0
1582540575634,2913113,0,5,0
1582540575734,2913188,0,5,0
1582540575878,2909358,0,5,0
1582540575934,2903764,0,5,0
1582540576033,2906775,0,5,0
1582540576133,2917387,0,5,0
1582540576234,2928030,0,5,0
1582540576333,2935396,0,5,0
1582540576433,2940659,0,5,0
1582540576534,2946190,0,5,0
1582540576637,2946470,0,5,0
1582540576737,2944081,0,5,0
1582540576835,2943292,0,5,0
1582540576935,2942906,0,5,0
1582540577035,2942150,0,5,0
1582540577135,2944695,0,5,0
1582540577235,2947110,0,5,0
1582540577335,2949998,0,5,0
1582540577435,2948559,0,5,0
1582540577534,2943494,0,5,0
1582540577635,2940256,0,5,0
1582540577735,2938597,0,5,0
1582540577835,2938812,0,5,0
1582540577935,2942370,0,5,0
1582540578036,2940380,0,5,0
1582540578136,2937201,0,5,0
1582540578236,2934556,0,5,0
1582540578336,2933805,0,5,0
1582540578435,2936173,0,5,0
1582540578535,2941776,0,5,0
1582540578636,2944408,0,5,0
1582540578736,2941185,0,5,0
1582540578836,2937160,0,5,0
1582540578936,2933336,0,5,0
1582540579036,2930311,0,5,0
1582540579136,2927719,0,5,0
1582540579237,2924527,0,5,0
1582540579336,2920079,0,5,0
1582540579436,2915956,0,5,0
1582540579536,2912954,0,5,0
1582540579636,2909764,0,5,0
1582540579736,2907093,0,5,0
1582540579837,2904552,0,5,0
1582540579937,2901128,0,5,0
1582540580037,2896976,0,5,0
1582540580137,2893745,0,5,0
1582540580237,2890817,0,5,0
1582540580337,2887925,0,5,0
1582540580437,2885583,0,5,0
1582540580536,2883198,0,5,0
1582540580637,2879439,0,5,0
1582540580737,2875957,0,5,0
1582540580847,2873201,0,5,0
1582540580947,2870036,0,5,0
1582540581048,2866824,0,5,0
1582540581148,2864226,0,5,0
1582540581248,2861607,0,5,0
1582540581348,2857648,0,5,0
1582540581448,2855083,0,5,0
1582540581547,2853100,0,5,0
1582540581648,2850500,0,5,0
1582540581748,2848443,0,5,0
1582540581848,2846729,0,5,0
1582540581948,2844052,0,5,0
1582540582048,2840694,0,5,0
1582540582149,2838495,0,5,0
1582540582249,2836594,0,5,0
1582540582348,2834663,0,5,0
1582540582448,2833320,0,5,0
1582540582548,2832578,0,5,0
1582540582649,2831006,0,5,0
1582540582749,2828661,0,5,0
1582540582849,2828262,0,5,0
1582540582949,2826467,0,5,0
1582540583049,2823874,0,5,0
1582540583139,2823174,0,5,0
1582540583240,2823319,0,5,0
1582540583339,2823390,0,5,0
1582540583439,2821777,0,5,0
1582540583538,2820105,0,5,0
1582540583639,2818819,0,5,0
1582540583739,2817901,0,5,0
1582540583839,2817495,0,5,0
1582540583939,2817254,0,5,0
1582540584039,2816999,0,5,0
1582540584139,2816183,0,5,0
1582540584239,2814898,0,5,0
1582540584340,2814132,0,5,0
1582540584439,2813682,0,5,0
1582540584539,2813271,0,5,0
1582540584640,2813106,0,5,0
1582540584740,2813413,0,5,0
1582540584840,2812887,0,5,0
1582540584940,2811826,0,5,0
1582540585040,2811238,0,5,0
1582540585140,2810979,0,5,0
1582540585240,2810762,0,5,0
1582540585340,2810968,0,5,0
1582540585440,2811045,0,5,0
1582540585540,2810302,0,5,0
1582540585640,2809521,0,5,0
1582540585740,2809236,0,5,0
1582540585841,2809303,0,5,0
1582540585951,2809193,0,5,0
1582540586051,2808944,0,5,0
1582540586151,2808269,0,5,0
1582540586251,2807321,0,5,0
1582540586351,2806732,0,5,0
1582540586451,2806228,0,5,0
1582540586551,2805755,0,5,0
1582540586641,2805385,0,5,0
1582540586741,2804907,0,5,0
1582540586841,2804128,0,5,0
1582540586941,2803247,0,5,0
1582540587041,2802888,0,5,0
1582540587142,2802806,0,5,0
1582540587241,2802601,0,5,0
1582540587342,2802658,0,5,0
1582540587442,2802379,0,5,0
1582540587541,2801601,0,5,0
1582540587642,2801401,0,5,0
1582540587742,2801206,0,5,0
1582540587842,2800898,0,5,0
1582540587942,2801004,0,5,0
1582540588042,2801129,0,5,0
1582540588143,2800767,0,5,0
1582540588243,2800230,0,5,0
1582540588342,2800033,0,5,0
1582540588442,2799874,0,5,0
1582540588552,2799850,0,5,0
1582540588653,2799841,0,5,0
1582540588754,2799726,0,5,0
1582540588853,2799256,0,5,0
1582540588953,2798987,0,5,0
1582540589053,2798886,0,5,0
1582540589154,2798912,0,5,0
1582540589243,2798914,0,5,0
1582540589343,2798865,0,5,0
1582540589443,2798544,0,5,0
1582540589542,2797996,0,5,0
1582540589643,2797617,0,5,0
1582540589743,2797190,0,5,0
1582540589843,2796908,0,5,0
1582540589943,2796796,0,5,0
1582540590043,2796439,0,5,0
1582540590143,2795784,0,5,0
1582540590243,2795456,0,5,0
1582540590344,2795310,0,5,0
1582540590443,2795132,0,5,0
1582540590543,2795201,0,5,0
1582540590644,2795231,0,5,0
1582540590744,2794830,0,5,0
1582540590844,2794509,0,5,0
1582540590954,2794135,0,5,0
1582540591054,2794529,0,5,0
1582540591155,2794514,0,5,0
1582540591255,2794580,0,5,0
1582540591354,2794840,0,5,0
1582540591454,2794656,0,5,0
1582540591554,2794277,0,5,0
1582540591654,2794352,0,5,0
1582540591754,2794128,0,5,0
1582540591855,2794013,0,5,0
1582540591954,2794043,0,5,0
1582540592055,2794064,0,5,0
1582540592155,2793557,0,5,0
1582540592255,2793358,0,5,0
1582540592355,2793236,0,5,0
1582540592455,2793112,0,5,0
1582540592555,2792983,0,5,0
1582540592655,2792924,0,5,0
1582540592755,2792698,0,5,0
1582540592855,2792251,0,5,0
1582540592956,2791732,0,5,0
1582540593056,2791434,0,5,0
1582540593147,2791130,0,5,0
1582540593246,2790980,0,5,0
1582540593346,2790646,0,5,0
1582540593446,2790336,0,5,0
1582540593545,2789970,0,5,0
1582540593646,2789536,0,5,0
1582540593746,2789380,0,5,0
1582540593846,2789061,0,5,0
1582540593946,2788773,0,5,0
1582540594046,2788859,0,5,0
1582540594146,2788386,0,5,0
1582540594246,2787972,0,5,0
1582540594346,2787669,0,5,0
1582540594446,2787284,0,5,0
1582540594547,2785052,0,5,0
1582540594646,2784136,0,5,0
1582540594747,2784223,0,5,0
1582540594847,2783838,0,5,0
1582540594947,2783492,0,5,0
1582540595047,2782926,0,5,0
1582540595147,2782515,0,5,0
1582540595247,2781975,0,5,0
1582540595347,2781914,0,5,0
1582540595447,2781805,0,5,0
1582540595546,2780995,0,5,0
1582540595647,2780583,0,5,0
1582540595748,2780092,0,5,0
1582540595847,2779790,0,5,0
1582540595947,2779567,0,5,0
1582540596047,2779217,0,5,0
1582540596148,2778778,0,5,0
1582540596247,2777943,0,5,0
1582540596348,2777750,0,5,0
1582540596447,2777579,0,5,0
1582540596547,2778560,0,5,0
1582540596648,2781012,0,5,0
1582540596748,2780452,0,5,0
1582540596848,2777008,0,5,0
1582540596948,2776234,0,5,0
1582540597048,2776954,0,5,0
1582540597148,2777721,0,5,0
1582540597249,2778568,0,5,0
1582540597348,2779398,0,5,0
1582540597448,2780536,0,5,0
1582540597548,2780522,0,5,0
1582540597648,2781053,0,5,0
1582540597748,2781708,0,5,0
1582540597849,2782023,0,5,0
1582540597949,2782612,0,5,0
1582540598049,2783537,0,5,0
1582540598149,2783478,0,5,0
1582540598249,2783454,0,5,0
1582540598349,2784049,0,5,0
1582540598449,2784495,0,5,0
1582540598548,2785117,0,5,0
1582540598649,2786404,0,5,0
1582540598749,2787611,0,5,0
1582540598849,2787802,0,5,0
1582540598949,2787701,0,5,0
1582540599049,2787942,0,5,0
1582540599151,2788242,0,5,0
1582540599251,2788850,0,5,0
1582540599351,2790261,0,5,0
1582540599450,2789958,0,5,0
1582540599550,2789794,0,5,0
1582540599651,2790133,0,5,0
1582540599751,2789982,0,5,0
1582540599850,2790129,0,5,0
1582540599951,2790846,0,5,0
1582540600050,2790629,0,5,0
1582540600150,2789757,0,5,0
1582540600251,2789132,0,5,0
1582540600351,2788819,0,5,0
1582540600450,2788551,0,5,0
1582540600550,2788410,0,5,0
1582540600651,2789005,0,5,0
1582540600751,2788547,0,5,0
1582540600861,2788500,0,5,0
1582540600961,2788999,0,5,0
1582540601061,2789625,0,5,0
1582540601162,2790508,0,5,0
1582540601262,2791556,0,5,0
1582540601362,2792400,0,5,0
1582540601462,2791564,0,5,0
1582540601561,2791461,0,5,0
1582540601662,2792123,0,5,0
1582540601762,2792036,0,5,0
1582540601862,2792556,0,5,0
1582540601962,2793152,0,5,0
1582540602063,2793120,0,5,0
1582540602163,2792005,0,5,0
1582540602262,2791385,0,5,0
1582540602362,2791173,0,5,0
1582540602462,2790828,0,5,0
1582540602561,2790597,0,5,0
1582540602663,2789291,0,5,0
1582540602762,2787043,0,5,0
1582540602862,2785439,0,5,0
1582540602963,2785658,0,5,0
1582540603062,2798487,0,5,0
1582540603153,2808732,0,5,0
1582540603254,2808971,0,5,0
1582540603354,2821049,0,5,0
1582540603453,2834089,0,5,0
1582540603553,2843355,0,5,0
1582540603653,2847426,0,5,0
1582540603753,2848253,0,5,0
1582540603854,2847165,0,5,0
1582540603954,2845102,0,5,0
1582540604054,2844384,0,5,0
1582540604154,2844362,0,5,0
1582540604254,2844810,0,5,0
1582540604354,2845099,0,5,0
1582540604454,2844816,0,5,0
1582540604553,2844710,0,5,0
1582540604654,2845513,0,5,0
1582540604754,2847773,0,5,0
1582540604853,2848892,0,5,0
1582540604953,2850679,0,5,0
1582540605054,2852405,0,5,0
1582540605154,2853307,0,5,0
1582540605253,2853645,0,5,0
1582540605354,2862564,0,5,0
1582540605453,2865252,0,5,0
1582540605553,2867509,0,5,0
1582540605654,2868571,0,5,0
1582540605756,2866796,0,5,0
1582540605854,2863404,0,5,0
1582540605965,2861428,0,5,0
1582540606055,2858219,0,5,0
1582540606165,2855310,0,5,0
1582540606265,2853497,0,5,0
1582540606364,2852297,0,5,0
1582540606464,2852646,0,5,0
1582540606564,2853770,0,5,0
1582540606665,2853896,0,5,0
1582540606766,2854001,0,5,0
1582540606865,2855342,0,5,0
1582540606965,2857055,0,5,0
1582540607065,2858102,0,5,0
1582540607166,2858428,0,5,0
1582540607265,2858206,0,5,0
1582540607365,2857272,0,5,0
1582540607465,2856320,0,5,0
1582540607564,2856317,0,5,0
1582540607665,2856815,0,5,0
1582540607766,2857912,0,5,0
1582540607865,2858704,0,5,0
1582540607965,2858084,0,5,0
1582540608066,2857224,0,5,0
1582540608166,2856826,0,5,0
1582540608267,2856080,0,5,0
1582540608366,2855668,0,5,0
1582540608466,2856047,0,5,0
1582540608565,2856065,0,5,0
1582540608666,2855420,0,5,0
1582540608766,2856194,0,5,0
1582540608866,2856951,0,5,0
1582540608967,2857515,0,5,0
1582540609066,2858869,0,5,0
1582540609166,2860121,0,5,0
1582540609257,2859517,0,5,0
1582540609356,2858552,0,5,0
1582540609456,2858551,0,5,0
1582540609556,2858169,0,5,0
1582540609656,2857952,0,5,0
1582540609756,2858323,0,5,0
1582540609857,2858323,0,5,0
1582540609957,2857523,0,5,0
1582540610057,2857859,0,5,0
1582540610157,2858665,0,5,0
1582540610257,2859175,0,5,0
1582540610357,2859856,0,5,0
1582540610457,2860807,0,5,0
1582540610556,2860757,0,5,0
1582540610657,2859907,0,5,0
1582540610757,2859813,0,5,0
1582540610857,2860184,0,5,0
1582540610957,2860617,0,5,0
1582540611059,2861248,0,5,0
1582540611158,2861879,0,5,0
1582540611257,2860867,0,5,0
1582540611358,2859784,0,5,0
1582540611457,2859799,0,5,0
1582540611557,2859597,0,5,0
1582540611658,2858670,0,5,0
1582540611758,2854578,0,5,0
1582540611858,2850008,0,5,0
1582540611958,2846046,0,5,0
1582540612058,2850691,0,5,0
1582540612168,2860008,0,5,0
1582540612269,2872856,0,5,0
1582540612368,2887348,0,5,0
1582540612468,2897630,0,5,0
1582540612568,2903750,0,5,0
1582540612669,2906816,0,5,0
1582540612770,2909277,0,5,0
1582540612869,2916463,0,5,0
1582540612969,2921473,0,5,0
1582540613068,2924797,0,5,0
1582540613159,2928047,0,5,0
1582540613259,2927604,0,5,0
1582540613358,2924631,0,5,0
1582540613459,2920237,0,5,0
1582540613558,2915805,0,5,0
1582540613659,2912235,0,5,0
1582540613759,2908129,0,5,0
1582540613896,2902176,0,5,0
1582540613959,2897418,0,5,0
1582540614071,2893542,0,5,0
1582540614160,2893694,0,5,0
1582540614258,2896744,0,5,0
1582540614359,2904816,0,5,0
1582540614460,2906258,0,5,0
1582540614559,2910008,0,5,0
1582540614662,2912879,0,5,0
1582540614761,2910631,0,5,0
1582540614862,2907514,0,5,0
1582540614962,2904182,0,5,0
1582540615060,2903311,0,5,0
1582540615162,2903415,0,5,0
1582540615263,2902822,0,5,0
1582540615360,2899792,0,5,0
1582540615461,2894871,0,5,0
1582540615560,2890893,0,5,0
1582540615661,2888499,0,5,0
1582540615761,2885994,0,5,0
1582540615862,2883646,0,5,0
1582540615961,2881479,0,5,0
1582540616061,2879484,0,5,0
1582540616162,2876917,0,5,0
1582540616261,2875079,0,5,0
1582540616361,2873603,0,5,0
1582540616462,2870959,0,5,0
1582540616561,2869239,0,5,0
1582540616662,2868576,0,5,0
1582540616762,2868252,0,5,0
1582540616862,2868034,0,5,0
1582540616962,2867525,0,5,0
1582540617062,2865637,0,5,0
1582540617162,2863896,0,5,0
1582540617262,2862804,0,5,0
1582540617362,2861584,0,5,0
1582540617462,2860693,0,5,0
1582540617561,2860392,0,5,0
1582540617663,2859854,0,5,0
1582540617762,2857527,0,5,0
1582540617862,2855739,0,5,0
1582540617963,2854663,0,5,0
1582540618062,2853743,0,5,0
1582540618163,2853374,0,5,0
1582540618263,2853317,0,5,0
1582540618363,2851877,0,5,0
1582540618463,2850031,0,5,0
1582540618562,2849181,0,5,0
1582540618663,2848616,0,5,0
1582540618762,2848477,0,5,0
1582540618863,2848474,0,5,0
1582540618963,2848519,0,5,0
1582540619064,2847374,0,5,0
1582540619164,2846128,0,5,0
1582540619263,2845664,0,5,0
1582540619363,2845085,0,5,0
1582540619463,2844346,0,5,0
1582540619562,2843942,0,5,0
1582540619663,2844032,0,5,0
1582540619763,2843046,0,5,0
1582540619863,2842770,0,5,0
1582540619963,2842956,0,5,0
1582540620063,2842937,0,5,0
1582540620164,2842779,0,5,0
1582540620263,2843083,0,5,0
1582540620364,2842875,0,5,0
1582540620463,2841769,0,5,0
1582540620563,2840078,0,5,0
1582540620664,2836554,0,5,0
1582540620764,2834093,0,5,0
1582540620864,2833618,0,5,0
1582540620974,2835109,0,5,0
1582540621074,2836366,0,5,0
1582540621174,2836364,0,5,0
1582540621275,2835037,0,5,0
1582540621374,2832479,0,5,0
1582540621474,2833296,0,5,0
1582540621574,2835208,0,5,0
1582540621675,2836080,0,5,0
1582540621774,2836409,0,5,0
1582540621875,2836253,0,5,0
1582540621975,2836458,0,5,0
1582540622075,2836662,0,5,0
1582540622175,2837176,0,5,0
1582540622275,2837590,0,5,0
1582540622375,2837903,0,5,0
1582540622475,2837788,0,5,0
1582540622575,2837604,0,5,0
1582540622675,2837809,0,5,0
1582540622776,2837869,0,5,0
1582540622875,2838297,0,5,0
1582540622975,2838953,0,5,0
1582540623076,2840018,0,5,0
1582540623168,2840025,0,5,0
1582540623266,2840261,0,5,0
1582540623366,2840708,0,5,0
1582540623466,2840495,0,5,0
1582540623565,2840255,0,5,0
1582540623670,2840165,0,5,0
1582540623766,2840022,0,5,0
1582540623866,2839716,0,5,0
1582540623966,2839532,0,5,0
1582540624066,2839492,0,5,0
1582540624166,2839622,0,5,0
1582540624267,2839735,0,5,0
1582540624366,2840188,0,5,0
1582540624466,2840564,0,5,0
1582540624566,2840216,0,5,0
1582540624667,2840473,0,5,0
1582540624767,2841053,0,5,0
1582540624867,2842117,0,5,0
1582540624967,2843541,0,5,0
1582540625067,2844952,0,5,0
1582540625167,2844781,0,5,0
1582540625267,2844097,0,5,0
1582540625367,2844197,0,5,0
1582540625467,2845074,0,5,0
1582540625566,2845976,0,5,0
1582540625667,2847486,0,5,0
1582540625767,2848816,0,5,0
1582540625870,2848456,0,5,0
1582540625969,2848169,0,5,0
1582540626070,2848814,0,5,0
1582540626168,2849451,0,5,0
1582540626267,2850469,0,5,0
1582540626368,2851075,0,5,0
1582540626468,2851323,0,5,0
1582540626567,2850512,0,5,0
1582540626668,2850391,0,5,0
1582540626768,2850049,0,5,0
1582540626868,2849690,0,5,0
1582540626968,2849671,0,5,0
1582540627068,2850102,0,5,0
1582540627168,2849741,0,5,0
1582540627268,2849157,0,5,0
1582540627368,2849641,0,5,0
1582540627468,2850581,0,5,0
1582540627568,2850569,0,5,0
1582540627668,2850728,0,5,0
1582540627768,2851438,0,5,0
1582540627869,2850961,0,5,0
1582540627969,2850759,0,5,0
1582540628069,2850946,0,5,0
1582540628169,2851225,0,5,0
1582540628269,2851436,0,5,0
1582540628369,2852208,0,5,0
1582540628469,2852578,0,5,0
1582540628568,2852622,0,5,0
1582540628669,2853123,0,5,0
1582540628780,2853742,0,5,0
1582540628869,2854869,0,5,0
1582540628969,2855366,0,5,0
1582540629070,2856090,0,5,0
1582540629170,2856200,0,5,0
1582540629269,2855240,0,5,0
1582540629370,2854173,0,5,0
1582540629469,2852662,0,5,0
1582540629569,2852120,0,5,0
1582540629670,2851733,0,5,0
1582540629770,2851159,0,5,0
1582540629870,2850069,0,5,0
1582540629970,2849228,0,5,0
1582540630070,2848769,0,5,0
1582540630170,2848780,0,5,0
1582540630270,2849150,0,5,0
1582540630370,2849095,0,5,0
1582540630470,2847948,0,5,0
1582540630570,2846578,0,5,0
1582540630671,2845866,0,5,0
1582540630771,2846287,0,5,0
1582540630881,2847359,0,5,0
1582540630981,2848828,0,5,0
1582540631081,2848898,0,5,0
1582540631182,2847336,0,5,0
1582540631281,2846451,0,5,0
1582540631381,2845958,0,5,0
1582540631481,2846525,0,5,0
1582540631580,2847781,0,5,0
1582540631681,2848586,0,5,0
1582540631781,2846536,0,5,0
1582540631881,2843591,0,5,0
1582540631981,2841357,0,5,0
1582540632082,2840325,0,5,0
1582540632182,2841483,0,5,0
1582540632283,2842980,0,5,0
1582540632383,2841579,0,5,0
1582540632483,2840654,0,5,0
1582540632582,2840332,0,5,0
1582540632683,2839840,0,5,0
1582540632783,2839884,0,5,0
1582540632882,2839802,0,5,0
1582540632983,2838648,0,5,0
1582540633084,2837253,0,5,0
1582540633173,2836929,0,5,0
1582540633274,2836610,0,5,0
1582540633373,2836478,0,5,0
1582540633473,2836777,0,5,0
1582540633573,2836592,0,5,0
1582540633673,2835103,0,5,0
1582540633773,2834779,0,5,0
1582540633874,2834853,0,5,0
1582540633974,2835121,0,5,0
1582540634073,2835798,0,5,0
1582540634174,2835315,0,5,0
1582540634273,2833278,0,5,0
1582540634373,2832114,0,5,0
1582540634474,2832825,0,5,0
1582540634573,2832959,0,5,0
1582540634673,2832954,0,5,0
1582540634774,2833421,0,5,0
1582540634873,2833211,0,5,0
1582540634973,2831997,0,5,0
1582540635074,2830016,0,5,0
1582540635174,2829273,0,5,0
1582540635274,2829472,0,5,0
1582540635374,2830571,0,5,0
1582540635474,2831568,0,5,0
1582540635573,2829713,0,5,0
1582540635674,2827516,0,5,0
1582540635774,2825374,0,5,0
1582540635874,2823420,0,5,0
1582540635975,2822296,0,5,0
1582540636074,2822511,0,5,0
1582540636185,2822149,0,5,0
1582540636285,2821419,0,5,0
1582540636385,2821023,0,5,0
1582540636485,2820913,0,5,0
1582540636585,2821414,0,5,0
1582540636686,2822475,0,5,0
1582540636787,2823458,0,5,0
1582540636886,2822577,0,5,0
1582540636986,2821523,0,5,0
1582540637086,2821282,0,5,0
1582540637187,2820865,0,5,0
1582540637286,2821168,0,5,0
1582540637386,2821878,0,5,0
1582540637486,2823629,0,5,0
1582540637585,2825130,0,5,0
1582540637685,2825958,0,5,0
1582540637786,2826283,0,5,0
1582540637886,2830452,0,5,0
1582540637986,2828217,0,5,0
1582540638087,2823917,0,5,0
1582540638187,2829215,0,5,0
1582540638287,2845635,0,5,0
1582540638387,2855001,0,5,0
1582540638487,2860554,0,5,0
1582540638587,2863162,0,5,0
1582540638687,2871349,0,5,0
1582540638787,2875005,0,5,0
1582540638887,2876833,0,5,0
1582540638988,2877595,0,5,0
1582540639087,2877246,0,5,0
1582540639177,2878857,0,5,0
1582540639277,2881513,0,5,0
1582540639377,2883594,0,5,0
1582540639477,2884653,0,5,0
1582540639576,2884349,0,5,0
1582540639676,2884062,0,5,0
1582540639776,2884032,0,5,0
1582540639877,2883614,0,5,0
1582540639977,2883214,0,5,0
1582540640077,2882799,0,5,0
1582540640177,2882442,0,5,0
1582540640277,2881778,0,5,0
1582540640377,2881953,0,5,0
1582540640477,2882726,0,5,0
1582540640576,2883239,0,5,0
1582540640677,2883777,0,5,0
1582540640778,2884074,0,5,0
1582540640887,2883928,0,5,0
1582540640987,2883682,0,5,0
1582540641088,2883849,0,5,0
1582540641188,2883846,0,5,0
1582540641288,2883817,0,5,0
1582540641388,2883683,0,5,0
1582540641488,2882570,0,5,0
1582540641587,2881554,0,5,0
1582540641688,2881447,0,5,0
1582540641788,2881351,0,5,0
1582540641888,2881329,0,5,0
1582540641988,2881679,0,5,0
1582540642089,2881406,0,5,0
1582540642188,2880072,0,5,0
1582540642289,2878848,0,5,0
1582540642388,2878367,0,5,0
1582540642488,2878007,0,5,0
1582540642588,2877583,0,5,0
1582540642689,2876676,0,5,0
1582540642790,2875700,0,5,0
1582540642889,2874378,0,5,0
1582540642989,2873963,0,5,0
1582540643089,2873930,0,5,0
1582540643179,2873946,0,5,0
1582540643279,2874344,0,5,0
1582540643379,2874860,0,5,0
1582540643479,2874182,0,5,0
1582540643578,2873798,0,5,0
1582540643679,2873743,0,5,0
1582540643779,2873698,0,5,0
1582540643879,2874237,0,5,0
1582540643979,2874643,0,5,0
1582540644080,2874407,0,0,0
1582540644179,2873530,0,0,0
1582540644279,2873271,0,0,0
1582540644380,2873089,0,0,0
1582540644480,2873274,0,0,0
1582540644579,2873631,0,0,0
1582540644680,2874101,0,0,0
1582540644780,2873503,0,0,0
1582540644880,2872615,0,0,0
1582540644980,2873015,0,0,0
1582540645080,2872908,0,0,0
1582540645180,2873001,0,0,0
1582540645281,2873595,0,0,0
1582540645380,2873919,0,0,0
1582540645480,2872906,0,0,0
1582540645580,2872003,0,0,0
1582540645680,2870948,0,0,0
1582540645781,2869694,0,0,0
1582540645891,2867533,0,0,0
1582540645991,2866006,0,0,0
1582540646091,2867173,0,0,0
1582540646191,2871467,0,0,0
1582540646291,2872160,0,0,0
1582540646391,2874514,0,0,0
1582540646491,2883644,0,0,0
1582540646591,2887518,0,0,0
1582540646691,2894526,0,0,0
1582540646791,2898208,0,0,0
1582540646891,2900365,0,0,0
1582540646991,2900939,0,0,0
1582540647092,2899391,0,0,0
1582540647192,2897542,0,0,0
1582540647292,2895859,0,0,0
1582540647392,2893892,0,0,0
1582540647492,2891284,0,0,0
1582540647591,2888677,0,0,0
1582540647692,2883901,0,0,0
1582540647792,2880884,0,0,0
1582540647892,2882433,0,0,0
1582540647992,2883313,0,0,0
1582540648092,2892736,0,0,0
1582540648192,2890319,0,0,0
1582540648293,2891102,0,0,0
1582540648392,2894387,0,0,0
1582540648492,2898972,0,0,0
1582540648592,2903948,0,0,0
1582540648693,2906038,0,0,0
1582540648794,2907306,0,0,0
1582540648893,2908663,0,0,0
1582540648993,2910425,0,0,0
1582540649093,2911978,0,0,0
1582540649184,2913853,0,0,0
1582540649283,2915937,0,0,0
1582540649383,2917375,0,0,0
1582540649485,2918464,0,0,0
1582540649582,2919708,0,0,0
1582540649683,2920705,0,0,0
1582540649783,2922266,0,0,0
1582540649883,2923869,0,0,0
1582540649983,2924831,0,0,0
1582540650083,2925385,0,0,0
1582540650183,2926410,0,0,0
1582540650283,2927626,0,0,0
1582540650384,2928769,0,0,0
1582540650483,2930198,0,0,0
1582540650583,2931344,0,0,0
1582540650684,2931677,0,0,0
1582540650784,2932464,0,0,0
1582540650884,2933574,0,0,0
1582540650984,2934375,0,0,0
1582540651084,2935613,0,0,0
1582540651184,2936965,0,0,0
1582540651285,2937305,0,0,0
1582540651384,2937324,0,0,0
1582540651484,2937864,0,0,0
1582540651584,2938705,0,0,0
1582540651684,2939602,0,0,0
1582540651784,2940733,0,0,0
1582540651885,2941221,0,0,0
1582540651985,2940799,0,0,0
1582540652085,2940926,0,0,0
1582540652195,2941324,0,0,0
1582540652295,2941343,0,0,0
1582540652395,2941719,0,0,0
1582540652495,2942318,0,0,0
1582540652595,2941689,0,0,0
1582540652695,2941393,0,0,0
1582540652796,2941381,0,0,0
1582540652895,2941814,0,0,0
1582540652995,2942443,0,0,0
1582540653097,2942806,0,0,0
1582540653187,2942274,0,0,0
1582540653286,2940813,0,0,0
1582540653386,2940306,0,0,0
1582540653485,2939130,0,0,0
1582540653585,2937415,0,0,0
1582540653686,2935980,0,0,0
1582540653786,2934274,0,0,0
1582540653886,2931145,0,0,0
1582540653986,2927844,0,0,0
1582540654086,2925252,0,0,0
1582540654186,2923554,0,0,0
1582540654286,2923671,0,0,0
1582540654386,2925635,0,0,0
1582540654486,2926924,0,0,0
1582540654587,2927195,0,0,0
1582540654687,2927984,0,0,0
1582540654787,2928840,0,0,0
1582540654887,2928521,0,0,0
1582540654987,3006645,0,0,0
1582540655087,3140947,0,0,0
1582540655187,3047364,0,0,0
1582540655287,2883367,0,0,0
1582540655392,2870649,0,0,0
1582540655498,2868130,0,0,0
1582540655595,2870326,0,0,0
1582540655688,2873672,0,0,0
1582540655788,2871527,0,0,0
1582540655888,2872943,0,0,0
1582540655989,2870920,0,0,0
1582540656092,2869971,0,0,0
1582540656190,2868339,0,0,0
1582540656292,2846366,0,0,0
1582540656391,2846172,0,0,0
1582540656490,2853230,0,0,0
1582540656588,2855484,0,0,0
1582540656691,2859904,0,0,0
1582540656797,2864830,0,0,0
1582540656888,2874073,0,0,0
1582540656991,2886111,0,0,0
1582540657088,2894562,0,0,0
1582540657190,2894362,0,0,0
1582540657290,2892500,0,0,0
1582540657388,2894485,0,0,0
1582540657488,2898360,0,0,0
1582540657588,2899811,0,0,0
1582540657689,2901856,0,0,0
1582540657788,2900176,0,0,0
1582540657889,2901270,0,0,0
1582540657989,2902483,0,0,0
1582540658093,2903015,0,0,0
1582540658189,2904777,0,0,0
1582540658289,2899876,0,0,0
1582540658389,2895862,0,0,0
1582540658489,2890713,0,0,0
1582540658589,2891857,0,0,0
1582540658689,2894534,0,0,0
1582540658790,2899411,0,0,0
1582540658889,2903585,0,0,0
1582540658989,2907559,0,0,0
1582540659090,2909656,0,0,0
1582540659190,2909943,0,0,0
1582540659290,2910340,0,0,0
1582540659390,2909874,0,0,0
1582540659489,2908767,0,0,0
1582540659589,2907383,0,0,0
1582540659690,2905631,0,0,0
1582540659790,2904472,0,0,0
1582540659890,2902941,0,0,0
1582540659990,2901889,0,0,0
1582540660090,2900982,0,0,0
1582540660190,2900900,0,0,0
1582540660290,2901985,0,0,0
1582540660390,2903416,0,0,0
1582540660490,2903843,0,0,0
1582540660590,2903567,0,0,0
1582540660690,2904197,0,0,0
1582540660801,2903270,0,0,0
1582540660901,2901764,0,0,0
1582540661001,2901284,0,0,0
1582540661101,2899241,0,0,0
1582540661202,2895123,0,0,0
1582540661301,2888891,0,0,0
1582540661402,2882185,0,0,0
1582540661502,2876079,0,0,0
1582540661600,2878018,0,0,0
1582540661701,2877282,0,0,0
1582540661802,2876953,0,0,0
1582540661901,2871839,0,0,0
1582540662001,2865331,0,0,0
1582540662102,2862009,0,0,0
1582540662202,2860212,0,0,0
1582540662302,2857778,0,0,0
1582540662401,2856267,0,0,0
1582540662502,2850817,0,0,0
1582540662601,2844705,0,0,0
1582540662702,2840474,0,0,0
1582540662802,2836931,0,0,0
1582540662902,2831853,0,0,0
1582540663002,2827463,0,0,0
1582540663092,2824581,0,0,0
1582540663192,2822955,0,0,0
1582540663293,2822742,0,0,0
1582540663393,2826040,0,0,0
1582540663492,2827838,0,0,0
1582540663592,2830317,0,0,0
1582540663692,2832852,0,0,0
1582540663792,2835179,0,0,0
1582540663893,2836076,0,0,0
1582540663992,2837768,0,0,0
1582540664093,2839722,0,6,0
1582540664193,2841369,0,6,0
1582540664293,2843054,0,6,0
1582540664393,2844754,0,6,0
1582540664493,2844246,0,6,0
1582540664592,2844639,0,6,0
1582540664694,2845510,0,6,0
1582540664793,2846547,0,6,0
1582540664893,2847712,0,6,0
1582540664993,2849184,0,6,0
1582540665094,2848520,0,6,0
1582540665194,2848018,0,6,0
1582540665294,2848938,0,6,0
1582540665396,2850168,0,6,0
1582540665494,2850685,0,6,0
1582540665593,2850330,0,6,0
1582540665704,2848539,0,6,0
1582540665804,2843243,0,6,0
1582540665905,2837285,0,6,0
1582540666005,2836990,0,6,0
1582540666105,2834073,0,6,0
1582540666205,2837115,0,6,0
1582540666306,2841827,0,6,0
1582540666405,2842166,0,6,0
1582540666505,2844659,0,6,0
1582540666605,2846331,0,6,0
1582540666706,2848223,0,6,0
1582540666807,2850244,0,6,0
1582540666906,2853116,0,6,0
1582540667006,2854129,0,6,0
1582540667106,2855644,0,6,0
1582540667207,2857603,0,6,0
1582540667306,2859392,0,6,0
1582540667406,2859425,0,6,0
1582540667507,2860359,0,6,0
1582540667605,2858341,0,6,0
1582540667706,2853302,0,6,0
1582540667807,2841491,0,6,0
1582540667906,2829377,0,6,0
1582540668006,2823863,0,6,0
1582540668107,2826231,0,6,0
1582540668208,2831249,0,6,0
1582540668308,2832854,0,6,0
1582540668407,2831635,0,6,0
1582540668506,2831626,0,6,0
1582540668605,2831998,0,6,0
1582540668707,2832338,0,6,0
1582540668806,2832663,0,6,0
1582540668906,2833392,0,6,0
1582540669007,2834250,0,6,0
1582540669106,2834987,0,6,0
1582540669197,2836141,0,6,0
1582540669297,2839381,0,6,0
1582540669396,2847408,0,6,0
1582540669497,2857132,0,6,0
1582540669597,2858630,0,6,0
1582540669697,2860195,0,6,0
1582540669797,2860050,0,6,0
1582540669898,2861176,0,6,0
1582540669997,2862829,0,6,0
1582540670098,2864871,0,6,0
1582540670198,2866889,0,6,0
1582540670298,2868920,0,6,0
1582540670398,2869453,0,6,0
1582540670498,2869482,0,6,0
1582540670597,2870242,0,6,0
1582540670698,2871100,0,6,0
1582540670798,2872266,0,6,0
1582540670898,2873960,0,6,0
1582540670998,2875557,0,6,0
1582540671099,2875692,0,6,0
1582540671199,2875963,0,6,0
1582540671298,2877039,0,6,0
1582540671399,2878604,0,6,0
1582540671498,2880785,0,6,0
1582540671598,2882707,0,6,0
1582540671699,2884187,0,6,0
1582540671799,2883981,0,6,0
1582540671899,2884126,0,6,0
1582540672000,2884487,0,6,0
1582540672100,2885464,0,6,0
1582540672209,2886508,0,6,0
1582540672310,2887745,0,6,0
1582540672409,2888221,0,6,0
1582540672509,2887731,0,6,0
1582540672609,2887972,0,6,0
1582540672709,2888606,0,6,0
1582540672810,2889155,0,6,0
1582540672910,2890115,0,6,0
1582540673009,2891004,0,6,0
1582540673099,2890945,0,6,0
1582540673199,2890473,0,6,0
1582540673299,2890774,0,6,0
1582540673399,2891153,0,6,0
1582540673499,2891656,0,6,0
1582540673598,2892580,0,6,0
1582540673699,2893316,0,6,0
1582540673799,2892576,0,6,0
1582540673899,2892420,0,6,0
1582540673999,2892592,0,6,0
1582540674100,2893020,0,6,0
1582540674200,2893492,0,6,0
1582540674299,2894270,0,6,0
1582540674400,2894491,0,6,0
1582540674499,2893600,0,6,0
1582540674599,2893464,0,6,0
1582540674700,2893575,0,6,0
1582540674800,2893957,0,6,0
1582540674900,2894393,0,6,0
1582540675000,2895138,0,6,0
1582540675100,2894229,0,6,0
1582540675200,2893595,0,6,0
1582540675301,2893630,0,6,0
1582540675400,2893644,0,6,0
1582540675499,2893912,0,6,0
1582540675599,2894434,0,6,0
1582540675699,2894084,0,6,0
1582540675799,2892995,0,6,0
1582540675910,2892893,0,6,0
1582540676009,2892815,0,6,0
1582540676109,2892946,0,6,0
1582540676210,2893547,0,6,0
1582540676309,2893679,0,6,0
1582540676410,2892656,0,6,0
1582540676510,2892422,0,6,0
1582540676610,2892335,0,6,0
1582540676710,2892539,0,6,0
1582540676810,2892986,0,6,0
1582540676910,2893364,0,6,0
1582540677010,2892117,0,6,0
1582540677110,2891515,0,6,0
1582540677210,2891734,0,6,0
1582540677310,2891699,0,6,0
1582540677411,2892004,0,6,0
1582540677511,2892722,0,6,0
1582540677611,2892079,0,6,0
1582540677711,2891072,0,6,0
1582540677810,2890851,0,6,0
1582540677911,2890861,0,6,0
1582540678011,2890960,0,6,0
1582540678111,2891499,0,6,0
1582540678211,2892019,0,6,0
1582540678311,2890951,0,6,0
1582540678411,2890106,0,6,0
1582540678511,2890041,0,6,0
1582540678611,2889944,0,6,0
1582540678711,2890210,0,6,0
1582540678812,2890586,0,6,0
1582540678912,2890865,0,6,0
1582540679011,2889580,0,6,0
1582540679112,2888896,0,6,0
1582540679212,2889014,0,6,0
1582540679312,2888898,0,6,0
1582540679412,2889192,0,6,0
1582540679512,2889895,0,6,0
1582540679612,2889122,0,6,0
1582540679712,2887684,0,6,0
1582540679812,2887303,0,6,0
1582540679912,2887230,0,6,0
1582540680012,2887079,0,6,0
1582540680113,2887421,0,6,0
1582540680212,2887634,0,6,0
1582540680312,2885896,0,6,0
1582540680413,2884806,0,6,0
1582540680512,2884609,0,6,0
1582540680612,2884610,0,6,0
1582540680713,2884564,0,6,0
1582540680812,2885270,0,6,0
1582540680913,2884424,0,6,0
1582540681013,2882851,0,6,0
1582540681113,2882163,0,6,0
1582540681213,2882038,0,6,0
1582540681313,2881991,0,6,0
1582540681413,2882464,0,6,0
1582540681513,2883124,0,6,0
1582540681613,2881544,0,6,0
1582540681713,2880659,0,6,0
1582540681813,2880380,0,6,0
1582540681914,2880369,0,6,0
1582540682013,2880564,0,6,0
1582540682113,2881203,0,6,0
1582540682214,2881784,0,6,0
1582540682314,2880278,0,6,0
1582540682414,2879371,0,6,0
1582540682514,2879304,0,6,0
1582540682604,2879306,0,6,0
1582540682704,2879645,0,6,0
1582540682804,2880392,0,6,0
1582540682904,2881298,0,6,0
1582540683004,2880482,0,6,0
1582540683104,2879269,0,6,0
1582540683204,2879138,0,6,0
1582540683304,2879072,0,6,0
1582540683405,2879343,0,6,0
1582540683504,2879898,0,6,0
1582540683604,2880882,0,6,0
1582540683704,2881158,0,6,0
1582540683804,2880041,0,6,0
1582540683904,2879693,0,6,0
1582540684005,2880035,0,6,0
1582540684105,2880213,0,6,0
1582540684205,2880846,0,6,0
1582540684305,2881691,0,6,0
1582540684405,2882542,0,6,0
1582540684505,2881601,0,6,0
1582540684605,2881160,0,6,0
1582540684705,2881467,0,6,0
1582540684805,2881586,0,6,0
1582540684906,2882381,0,6,0
1582540685005,2883279,0,6,0
1582540685115,2884221,0,6,0
1582540685207,2883126,0,6,0
1582540685306,2882983,0,6,0
1582540685416,2883315,0,6,0
1582540685506,2883572,0,6,0
1582540685606,2884206,0,6,0
1582540685718,2884966,0,6,0
1582540685806,2885147,0,6,0
1582540685906,2884112,0,6,0
1582540686006,2883770,0,6,0
1582540686106,2884167,0,6,0
1582540686206,2884444,0,6,0
1582540686306,2884815,0,6,0
1582540686406,2885777,0,6,0
1582540686506,2884900,0,6,0
1582540686606,2883774,0,6,0
1582540686707,2883599,0,6,0
1582540686806,2883507,0,6,0
1582540686906,2883515,0,6,0
1582540687007,2884313,0,6,0
1582540687107,2884425,0,6,0
1582540687207,2882845,0,6,0
1582540687317,2882251,0,6,0
1582540687417,2881783,0,6,0
1582540687517,2881771,0,6,0
1582540687617,2881987,0,6,0
1582540687717,2882677,0,6,0
1582540687817,2882055,0,6,0
1582540687919,2880616,0,6,0
1582540688017,2879960,0,6,0
1582540688117,2879789,0,6,0
1582540688219,2879775,0,6,0
1582540688318,2880319,0,6,0
1582540688418,2881032,0,6,0
1582540688518,2880223,0,6,0
1582540688618,2879010,0,6,0
1582540688718,2878710,0,6,0
1582540688808,2878516,0,6,0
1582540688908,2878760,0,6,0
1582540689008,2879232,0,6,0
1582540689108,2880098,0,6,0
1582540689209,2880278,0,6,0
1582540689308,2878900,0,6,0
1582540689408,2878534,0,6,0
1582540689508,2878441,0,6,0
1582540689608,2878443,0,6,0
1582540689708,2879070,0,6,0
1582540689808,2879898,0,6,0
1582540689908,2880745,0,6,0
1582540690009,2879787,0,6,0
1582540690109,2879285,0,6,0
1582540690209,2879341,0,6,0
1582540690309,2879634,0,6,0
1582540690409,2880050,0,6,0
1582540690509,2880826,0,6,0
1582540690609,2881837,0,6,0
1582540690709,2881283,0,6,0
1582540690820,2880438,0,6,0
1582540690920,2880461,0,6,0
1582540691019,2880639,0,6,0
1582540691120,2881101,0,6,0
1582540691220,2881906,0,6,0
1582540691320,2882950,0,6,0
1582540691420,2882637,0,6,0
1582540691520,2881570,0,6,0
1582540691620,2881490,0,6,0
1582540691720,2881686,0,6,0
1582540691820,2881985,0,6,0
1582540691920,2882788,0,6,0
1582540692020,2883794,0,6,0
1582540692120,2883026,0,6,0
1582540692220,2882234,0,6,0
1582540692320,2881894,0,6,0
1582540692421,2882105,0,6,0
1582540692521,2882286,0,6,0
1582540692621,2882979,0,6,0
1582540692721,2883845,0,6,0
1582540692821,2883358,0,6,0
1582540692921,2882144,0,6,0
1582540693021,2881935,0,6,0
1582540693111,2881916,0,6,0
1582540693211,2882045,0,6,0
1582540693311,2882609,0,6,0
1582540693411,2883468,0,6,0
1582540693511,2883011,0,6,0
1582540693611,2881794,0,6,0
1582540693711,2881483,0,6,0
1582540693811,2881293,0,6,0
1582540693911,2881468,0,6,0
1582540694011,2882032,0,6,0
1582540694111,2882770,0,6,0
1582540694212,2882981,0,6,0
1582540694311,2881865,0,6,0
1582540694411,2881196,0,6,0
1582540694512,2881169,0,6,0
1582540694612,2881170,0,6,0
1582540694712,2881488,0,6,0
1582540694812,2882060,0,6,0
1582540694912,2882369,0,6,0
1582540695012,2881074,0,6,0
1582540695112,2880390,0,6,0
1582540695212,2880181,0,6,0
1582540695312,2880235,0,6,0
1582540695412,2880529,0,6,0
1582540695512,2881206,0,6,0
1582540695612,2881260,0,6,0
1582540695713,2879856,0,6,0
1582540695812,2879089,0,6,0
1582540695912,2878938,0,6,0
1582540696013,2878876,1,6,n
1582540696113,2879169,1,6,n
1582540696223,2880223,1,6,n
1582540696324,2879493,1,6,n
1582540696424,2875944,1,6,n
1582540696524,2872778,1,6,n
1582540696624,2869491,1,6,n
1582540696724,2869809,1,6,n
1582540696825,2871940,1,6,n
1582540696924,2873553,1,6,n
1582540697024,2873067,1,6,n
1582540697124,2870908,1,6,n
1582540697225,2869257,1,6,n
1582540697325,2868389,1,6,n
1582540697425,2867767,1,6,n
1582540697526,2867221,1,6,n
1582540697625,2867621,1,6,n
1582540697725,2866804,1,6,n
1582540697826,2865358,1,6,n
1582540697925,2864935,1,6,n
1582540698025,2864117,1,6,n
1582540698126,2863507,1,6,n
1582540698226,2864530,1,6,n
1582540698327,2866040,1,6,n
1582540698426,2864350,1,6,n
1582540698526,2862119,1,6,n
1582540698627,2860444,1,6,n
1582540698726,2858513,1,6,n
1582540698827,2857003,1,6,n
1582540698927,2855545,1,6,n
1582540699027,2853839,1,6,n
1582540699127,2851274,1,6,n
1582540699217,2849303,1,6,n
1582540699318,2848529,1,6,n
1582540699417,2849684,1,6,n
1582540699517,2853947,1,6,n
1582540699618,2857990,1,6,n
1582540699717,2860290,1,6,n
1582540699817,2858231,1,6,n
1582540699918,2855928,1,6,n
1582540700017,2854162,1,6,n
1582540700118,2852827,1,6,n
1582540700218,2850854,1,6,n
1582540700317,2849961,1,6,n
1582540700417,2848069,1,6,n
1582540700517,2845521,1,6,n
1582540700617,2844434,1,6,n
1582540700717,2846310,1,6,n
1582540700817,2848849,1,6,n
1582540700927,2852208,1,6,n
1582540701027,2855936,1,6,n
1582540701128,2859688,1,6,n
1582540701228,2861901,1,6,n
1582540701329,2864490,1,6,n
1582540701429,2866101,1,6,n
1582540701529,2866176,1,6,n
1582540701629,2867492,1,6,n
1582540701729,2868977,1,6,n
1582540701829,2870215,1,6,n
1582540701929,2870278,1,6,n
1582540702029,2870795,1,6,n
1582540702129,2871623,1,6,n
1582540702229,2871480,1,6,n
1582540702330,2870438,1,6,n
1582540702429,2870678,1,6,n
1582540702529,2870807,1,6,n
1582540702630,2870059,1,6,n
1582540702730,2869711,1,6,n
1582540702831,2869030,1,6,n
1582540702930,2870419,1,6,n
1582540703030,2871697,1,6,n
1582540703120,2873033,1,6,n
1582540703221,2872618,1,6,n
1582540703320,2870716,1,6,n
1582540703420,2869087,1,6,n
1582540703520,2871514,1,6,n
1582540703620,2875247,1,6,n
1582540703720,2876857,1,6,n
1582540703819,2877193,1,6,n
1582540703919,2877469,1,6,n
1582540704019,2877593,1,6,n
1582540704120,2876666,1,6,n
1582540704219,2874518,1,6,n
1582540704319,2874139,1,6,n
1582540704420,2874705,1,6,n
1582540704520,2876333,1,6,n
1582540704620,2878092,1,6,n
1582540704720,2878861,1,6,n
1582540704821,2880360,1,6,n
1582540704921,2879167,1,6,n
1582540705021,2881043,0,6,0
1582540705121,2882967,0,6,0
1582540705221,2882849,0,6,0
1582540705322,2882238,0,6,0
1582540705421,2879423,0,6,0
1582540705521,2877646,0,6,0
1582540705622,2876776,0,6,0
1582540705721,2882177,0,6,0
1582540705821,2884447,0,6,0
1582540705922,2884429,0,6,0
1582540706031,2883012,0,6,0
1582540706131,2881328,0,6,0
1582540706232,2880084,0,6,0
1582540706331,2878594,0,6,0
1582540706431,2877921,0,6,0
1582540706531,2878028,0,6,0
1582540706631,2877528,0,6,0
1582540706731,2876054,0,6,0
1582540706832,2875334,0,6,0
1582540706931,2874930,0,6,0
1582540707031,2874544,0,6,0
1582540707132,2873963,0,6,0
1582540707232,2873226,0,6,0
1582540707332,2872569,0,6,0
1582540707433,2873624,0,6,0
1582540707532,2873183,0,6,0
1582540707632,2871190,0,6,0
1582540707732,2869176,0,6,0
1582540707832,2867909,0,6,0
1582540707932,2866380,0,6,0
1582540708033,2863290,1,6,n
1582540708132,2859343,1,6,n
1582540708232,2855984,1,6,n
1582540708333,2852435,1,6,n
1582540708433,2849405,1,6,n
1582540708532,2847157,1,6,n
1582540708633,2844375,1,6,n
1582540708733,2841023,1,6,n
1582540708834,2840941,1,6,n
1582540708933,2841977,1,6,n
1582540709033,2841956,1,6,n
1582540709133,2843057,1,6,n
1582540709224,2843681,1,6,n
1582540709323,2844024,1,6,n
1582540709423,2842693,1,6,n
1582540709523,2840344,1,6,n
1582540709623,2837535,1,6,n
1582540709723,2834934,1,6,n
1582540709823,2832751,1,6,n
1582540709923,2830569,1,6,n
1582540710023,2827579,1,6,n
1582540710124,2822971,1,6,n
1582540710223,2819413,1,6,n
1582540710324,2816321,1,6,n
1582540710424,2814456,1,6,n
1582540710524,2814645,1,6,n
1582540710624,2816095,1,6,n
1582540710724,2814916,1,6,n
1582540710824,2812581,1,6,n
1582540710934,2811869,1,6,n
1582540711035,2812549,1,6,n
1582540711134,2814545,1,6,n
1582540711235,2816706,1,6,n
1582540711335,2818725,1,6,n
1582540711434,2816939,1,6,n
1582540711534,2815503,1,6,n
1582540711635,2816015,1,6,n
1582540711735,2816912,1,6,n
1582540711835,2818656,1,6,n
1582540711935,2820932,1,6,n
1582540712035,2823443,1,6,n
1582540712135,2824676,1,6,n
1582540712236,2825373,1,6,n
1582540712335,2827188,1,6,n
1582540712435,2829239,1,6,n
1582540712536,2831824,1,6,n
1582540712627,2833511,1,6,n
1582540712735,2833290,1,6,n
1582540712836,2831243,1,6,n
1582540712936,2824322,1,6,n
1582540713036,2815523,1,6,n
1582540713126,2809358,1,6,n
1582540713227,2815432,1,6,n
1582540713326,2843305,1,6,n
1582540713426,2843116,1,6,n
1582540713526,2802436,1,6,n
1582540713626,2791212,1,6,n
1582540713726,2789567,1,6,n
1582540713826,2791370,1,6,n
1582540713926,2787845,1,6,n
1582540714026,2785831,1,6,n
1582540714126,2783670,1,6,n
1582540714226,2780461,1,6,n
1582540714326,2774916,1,6,n
1582540714426,2771295,1,6,n
1582540714526,2769733,1,6,n
1582540714627,2773279,1,6,n
1582540714727,2769031,1,6,n
1582540714827,2769985,1,6,n
1582540714927,2776052,1,6,n
1582540715027,2781086,1,6,n
1582540715127,2783857,1,6,n
1582540715227,2786299,1,6,n
1582540715327,2809327,1,6,n
1582540715427,2816256,1,6,n
1582540715527,2832577,1,6,n
1582540715627,2838859,1,6,n
1582540715727,2836358,1,6,n
1582540715828,2828966,1,6,n
1582540715927,2828740,1,6,n
1582540716027,2833128,0,6,0
1582540716128,2841889,0,6,0
1582540716228,2850558,0,6,0
1582540716327,2888372,0,6,0
1582540716428,2892599,0,6,0
1582540716528,2875782,0,6,0
1582540716628,2833700,0,6,0
1582540716728,2803898,0,6,0
1582540716828,2796514,0,6,0
1582540716928,2802933,0,6,0
1582540717028,2808513,0,6,0
1582540717128,2813354,0,6,0
1582540717228,2816698,0,6,0
1582540717329,2819575,0,6,0
1582540717428,2820254,0,6,0
1582540717528,2821573,0,6,0
1582540717629,2821305,0,6,0
1582540717728,2821470,0,6,0
1582540717828,2820790,0,6,0
1582540717929,2820468,0,6,0
1582540718029,2821083,0,6,0
1582540718129,2821434,0,6,0
1582540718229,2821924,0,6,0
1582540718329,2821432,0,6,0
1582540718429,2821638,0,6,0
1582540718529,2822023,0,6,0
1582540718629,2822471,0,6,0
1582540718729,2823278,0,6,0
1582540718830,2824374,0,6,0
1582540718929,2823967,0,6,0
1582540719029,2823526,0,6,0
1582540719130,2823936,0,6,0
1582540719230,2824268,0,6,0
1582540719330,2824603,0,6,0
1582540719430,2825719,0,6,0
1582540719530,2826539,0,6,0
1582540719630,2826187,0,6,0
1582540719730,2826699,0,6,0
1582540719830,2827387,0,6,0
1582540719930,2828153,0,6,0
1582540720030,2828966,0,6,0
1582540720131,2829919,0,6,0
1582540720230,2829808,0,6,0
1582540720330,2829391,0,6,0
1582540720430,2829506,0,6,0
1582540720530,2829861,0,6,0
1582540720631,2830629,0,6,0
1582540720731,2831213,0,6,0
1582540720842,2832452,0,6,0
1582540720941,2831393,0,6,0
1582540721041,2830359,0,6,0
1582540721141,2829873,0,6,0
1582540721242,2830167,0,6,0
1582540721341,2830788,0,6,0
1582540721441,2831799,0,6,0
1582540721542,2833182,0,6,0
1582540721641,2834037,0,6,0
1582540721741,2836037,0,6,0
1582540721842,2839018,0,6,0
1582540721941,2840523,0,6,0
1582540722041,2847760,0,6,0
1582540722142,2859180,0,6,0
1582540722242,2868387,0,6,0
1582540722342,2876862,0,6,0
1582540722442,2883572,0,6,0
1582540722532,2887349,0,6,0
1582540722632,2889927,0,6,0
1582540722732,2890975,0,6,0
1582540722832,2891980,0,6,0
1582540722932,2893173,0,6,0
1582540723032,2892535,0,6,0
1582540723132,2891996,0,6,0
1582540723232,2892163,0,6,0
1582540723333,2892220,0,6,0
1582540723432,2892300,0,6,0
1582540723532,2892914,0,6,0
1582540723632,2893231,0,6,0
1582540723732,2892274,0,6,0
1582540723832,2891830,0,6,0
1582540723933,2890928,0,6,0
1582540724033,2889260,0,6,0
1582540724133,2886833,0,6,0
1582540724233,2876198,0,6,0
1582540724333,2915431,0,6,0
1582540724433,3006642,0,6,0
1582540724533,3028646,0,6,0
1582540724633,3045836,0,6,0
1582540724733,2970219,0,6,0
1582540724833,2908975,0,6,0
1582540724933,2905223,0,6,0
1582540725034,2907408,0,6,0
1582540725134,2908287,0,6,0
1582540725234,2908230,0,6,0
1582540725334,2909256,0,6,0
1582540725434,2913264,0,6,0
1582540725534,2916410,0,6,0
1582540725634,2917314,0,6,0
1582540725734,2917386,0,6,0
1582540725834,2917757,0,6,0
1582540725944,2917993,0,6,0
1582540726044,2918356,0,6,0
1582540726144,2919161,0,6,0
1582540726245,2919303,0,6,0
1582540726346,2918531,0,6,0
1582540726444,2917957,0,6,0
1582540726544,2918201,0,6,0
1582540726645,2918853,0,6,0
1582540726745,2920316,0,6,0
1582540726846,2922590,0,6,0
1582540726945,2923288,0,6,0
1582540727045,2923546,0,6,0
1582540727145,2924786,0,6,0
1582540727246,2925873,0,6,0
1582540727345,2926863,0,6,0
1582540727445,2928373,0,6,0
1582540727545,2928128,0,6,0
1582540727645,2927550,0,6,0
1582540727745,2927688,0,6,0
1582540727845,2928108,0,6,0
1582540727946,2928660,0,6,0
1582540728046,2929650,0,6,0
1582540728146,2929439,0,6,0
1582540728246,2928591,0,6,0
1582540728347,2928561,0,6,0
1582540728446,2928614,0,6,0
1582540728546,2929071,0,6,0
1582540728647,2929736,0,6,0
1582540728747,2930480,0,6,0
1582540728846,2929525,0,6,0
1582540728946,2928901,0,6,0
1582540729047,2928953,0,6,0
1582540729147,2928991,0,6,0
1582540729237,2929405,0,6,0
1582540729337,2930299,0,6,0
1582540729436,2930088,0,6,0
1582540729536,2929031,0,6,0
1582540729637,2928666,0,6,0
1582540729737,2928603,0,6,0
1582540729837,2928885,0,6,0
1582540729937,2929562,0,6,0
1582540730037,2930618,0,6,0
1582540730137,2929812,0,6,0
1582540730237,2928889,0,6,0
1582540730337,2928476,0,6,0
1582540730436,2928437,0,6,0
1582540730536,2928641,0,6,0
1582540730637,2929371,0,6,0
1582540730736,2930440,0,6,0
1582540730836,2929645,0,6,0
1582540730936,2928393,0,6,0
1582540731036,2927951,0,6,0
1582540731136,2927895,0,6,0
1582540731237,2928050,0,6,0
1582540731336,2928709,0,6,0
1582540731437,2929767,0,6,0
1582540731536,2929900,0,6,0
1582540731636,2928512,0,6,0
1582540731737,2927987,0,6,0
1582540731837,2927857,0,6,0
1582540731937,2927946,0,6,0
1582540732037,2928651,0,6,0
1582540732151,2929633,0,6,0
1582540732249,2931171,0,6,0
1582540732348,2929974,0,6,0
1582540732448,2929010,0,6,0
1582540732548,2929093,0,6,0
1582540732649,2928887,0,6,0
1582540732748,2929402,0,6,0
1582540732849,2930078,0,6,0
1582540732949,2931224,0,6,0
1582540733048,2931091,0,6,0
1582540733138,2930023,0,6,0
1582540733239,2929625,0,6,0
1582540733338,2929645,0,6,0
1582540733438,2929926,0,6,0
1582540733538,2930366,0,6,0
1582540733638,2931483,0,6,0
1582540733738,2932069,0,6,0
1582540733838,2930613,0,6,0
1582540733938,2930196,0,6,0
1582540734038,2930284,0,6,0
1582540734139,2930451,0,6,0
1582540734238,2930897,0,6,0
1582540734338,2931797,0,6,0
1582540734439,2932438,0,6,0
1582540734539,2931146,0,6,0
1582540734639,2930584,0,6,0
1582540734739,2930510,0,6,0
1582540734839,2930592,0,6,0
1582540734940,2930727,0,6,0
1582540735040,2931347,0,6,0
1582540735140,2931429,0,6,0
1582540735240,2930047,0,6,0
1582540735340,2929148,0,6,0
1582540735440,2928950,0,6,0
1582540735540,2928890,0,6,0
1582540735641,2929252,0,6,0
1582540735740,2929697,0,6,0
1582540735840,2930529,0,6,0
1582540735952,2929158,0,6,0
1582540736041,2928178,0,6,0
1582540736152,2928192,0,6,0
1582540736252,2928009,0,6,0
1582540736352,2928714,0,6,0
1582540736452,2929662,0,6,0
1582540736552,2929781,0,6,0
1582540736652,2928548,0,6,0
1582540736752,2928173,0,6,0
1582540736852,2928036,0,6,0
1582540736952,2928236,0,6,0
1582540737052,2928656,0,6,0
1582540737153,2929624,0,6,0
1582540737252,2928193,0,6,0
1582540737352,2927061,0,6,0
1582540737453,2926686,0,6,0
1582540737552,2926479,0,6,0
1582540737652,2926723,0,6,0
1582540737753,2927355,0,6,0
1582540737852,2927468,0,6,0
1582540737952,2925574,0,6,0
1582540738053,2924607,0,6,0
1582540738153,2924000,0,6,0
1582540738252,2923776,0,6,0
1582540738354,2924273,0,6,0
1582540738453,2924819,0,6,0
1582540738553,2923556,0,6,0
1582540738654,2922070,0,6,0
1582540738753,2921461,0,6,0
1582540738854,2921182,0,6,0
1582540738953,2921285,0,6,0
1582540739053,2921995,0,6,0
1582540739153,2922809,0,6,0
1582540739244,2921522,0,6,0
1582540739343,2920540,0,6,0
1582540739443,2920249,0,6,0
1582540739543,2920306,0,6,0
1582540739643,2920860,0,6,0
1582540739742,2921601,0,6,0
1582540739842,2922531,0,6,0
1582540739942,2921504,0,6,0
1582540740042,2920771,0,6,0
1582540740143,2920733,0,6,0
1582540740242,2920884,0,6,0
1582540740342,2921447,0,6,0
1582540740442,2922351,0,6,0
1582540740542,2923398,0,6,0
1582540740642,2922942,0,6,0
1582540740753,2922506,0,6,0
1582540740842,2922840,0,6,0
1582540740953,2923201,0,6,0
1582540741053,2923932,0,6,0
1582540741153,2924788,0,6,0
1582540741253,2926069,0,6,0
1582540741353,2925889,0,6,0
1582540741453,2925579,0,6,0
1582540741553,2925773,0,6,0
1582540741653,2926228,0,6,0
1582540741753,2927106,0,6,0
1582540741853,2928057,0,6,0
1582540741954,2929315,0,6,0
1582540742053,2929059,0,6,0
1582540742154,2928630,0,6,0
1582540742254,2928911,0,6,0
1582540742354,2929168,0,6,0
1582540742454,2929717,0,6,0
1582540742554,2930776,0,6,0
1582540742654,2931972,0,6,0
1582540742754,2931657,0,6,0
1582540742854,2931537,0,6,0
1582540742954,2931735,0,6,0
1582540743054,2932072,0,6,0
1582540743145,2932600,0,6,0
1582540743244,2933633,0,6,0
1582540743344,2934666,0,6,0
1582540743445,2934439,0,6,0
1582540743544,2934209,0,6,0
1582540743644,2934373,0,6,0
1582540743745,2934770,0,6,0
1582540743844,2935317,0,6,0
1582540743944,2936224,0,6,0
1582540744045,2937127,0,6,0
1582540744145,2937693,0,6,0
1582540744245,2937179,0,6,0
1582540744345,2937286,0,6,0
1582540744445,2937537,0,6,0
1582540744545,2938065,0,6,0
1582540744647,2938729,0,6,0
1582540744745,2939689,0,6,0
1582540744845,2940385,0,6,0
1582540744946,2939942,0,6,0
1582540745056,2939826,0,6,0
1582540745146,2940137,0,6,0
1582540745248,2940482,0,6,0
1582540745346,2941148,0,6,0
1582540745446,2941941,0,6,0
1582540745546,2942791,0,6,0
1582540745646,2942038,0,6,0
1582540745746,2941844,0,6,0
1582540745846,2942153,0,6,0
1582540745946,2942426,0,6,0
1582540746046,2942873,0,6,0
1582540746146,2943778,0,6,0
1582540746246,2943995,0,6,0
1582540746346,2942954,0,6,0
1582540746447,2942564,0,6,0
1582540746546,2942626,0,6,0
1582540746647,2942492,0,6,0
1582540746747,2943127,0,6,0
1582540746847,2943593,0,6,0
1582540746946,2942750,0,6,0
1582540747047,2941864,0,6,0
1582540747147,2941125,0,6,0
1582540747247,2940855,0,6,0
1582540747347,2940602,0,6,0
1582540747447,2941018,0,6,0
1582540747547,2941229,0,6,0
1582540747647,2940027,0,6,0
1582540747747,2938875,0,6,0
1582540747847,2938803,0,6,0
1582540747948,2938537,0,6,0
1582540748047,2938798,0,6,0
1582540748148,2939180,0,6,0
1582540748248,2938917,0,6,0
1582540748348,2937084,0,6,0
1582540748448,2936117,0,6,0
1582540748549,2935714,0,6,0
1582540748659,2935336,0,6,0
1582540748759,2935177,0,6,0
1582540748849,2935815,0,6,0
1582540748948,2935794,0,6,0
1582540749048,2934258,0,6,0
1582540749149,2933364,0,6,0
1582540749250,2932905,0,6,0
1582540749350,2932652,0,6,0
1582540749450,2932769,0,6,0
1582540749550,2933409,0,6,0
1582540749650,2933439,0,6,0
1582540749750,2931958,0,6,0
1582540749850,2931482,0,6,0
1582540749950,2931412,0,6,0
1582540750050,2931274,0,6,0
1582540750150,2931724,0,6,0
1582540750250,2932138,0,6,0
1582540750351,2931306,0,6,0
1582540750450,2929707,0,6,0
1582540750550,2928675,0,6,0
1582540750651,2928203,0,6,0
1582540750751,2928130,0,6,0
1582540750862,2928529,0,6,0
1582540750961,2929358,0,6,0
1582540751061,2928398,0,6,0
1582540751161,2927099,0,6,0
1582540751262,2926491,0,6,0
1582540751361,2926527,0,6,0
1582540751461,2926956,0,6,0
1582540751561,2927652,0,6,0
1582540751661,2927803,0,6,0
1582540751761,2926302,0,6,0
1582540751862,2924315,0,6,0
1582540751962,2923534,0,6,0
1582540752061,2922408,1,6,n
1582540752162,2921240,1,6,n
1582540752262,2920229,1,6,n
1582540752362,2919632,1,6,n
1582540752462,2918707,1,6,n
1582540752562,2916457,1,6,n
1582540752662,2915188,1,6,n
1582540752762,2914853,1,6,n
1582540752862,2915050,1,6,n
1582540752962,2915334,1,6,n
1582540753062,2914106,1,6,n
1582540753152,2910158,1,6,n
1582540753252,2903334,1,6,n
1582540753353,2895477,1,6,n
1582540753452,2890860,1,6,n
1582540753552,2889005,1,6,n
1582540753653,2888086,1,6,n
1582540753752,2887439,1,6,n
1582540753852,2887179,1,6,n
1582540753963,2885957,1,6,n
1582540754053,2884962,1,6,n
1582540754153,2884144,1,6,n
1582540754253,2882671,1,6,n
1582540754353,2880781,1,6,n
1582540754453,2876768,1,6,n
1582540754553,2870472,1,6,n
1582540754653,2867997,1,6,n
1582540754753,2865974,1,6,n
1582540754853,2862639,1,6,n
1582540754953,2859105,1,6,n
1582540755053,2857163,1,6,n
1582540755154,2855085,1,6,n
1582540755254,2852748,1,6,n
1582540755354,2849210,1,6,n
1582540755454,2848212,1,6,n
1582540755554,2848173,1,6,n
1582540755654,2848896,1,6,n
1582540755754,2849582,1,6,n
1582540755854,2847041,1,6,n
1582540755954,2847333,1,6,n
1582540756054,2848831,1,6,n
1582540756164,2853241,1,6,n
1582540756264,2855838,1,6,n
1582540756365,2861400,1,6,n
1582540756465,2864335,1,6,n
1582540756564,2863889,1,6,n
1582540756665,2857969,1,6,n
1582540756765,2846420,1,6,n
1582540756866,2842839,1,6,n
1582540756966,2839080,1,6,n
1582540757065,2836245,1,6,n
1582540757165,2834528,1,6,n
1582540757268,2834708,1,6,n
1582540757365,2830767,1,6,n
1582540757465,2831301,1,6,n
1582540757566,2831255,1,6,n
1582540757665,2832212,1,6,n
1582540757765,2829753,1,6,n
1582540757866,2825592,1,6,n
1582540757966,2823482,1,6,n
1582540758066,2820983,1,6,n
1582540758166,2817941,1,6,n
1582540758266,2815210,1,6,n
1582540758367,2812866,1,6,n
1582540758466,2813425,1,6,n
1582540758566,2813429,1,6,n
1582540758667,2812985,1,6,n
1582540758766,2814489,1,6,n
1582540758866,2816551,1,6,n
1582540758966,2815645,1,6,n
1582540759067,2815078,0,6,0
1582540759166,2814174,0,6,0
1582540759257,2819800,0,6,0
1582540759357,2828314,0,6,0
1582540759456,2832732,0,6,0
1582540759556,2835400,0,6,0
1582540759657,2839577,0,6,0
1582540759757,2844037,0,6,0
1582540759857,2848560,0,6,0
1582540759957,2853814,0,6,0
1582540760057,2859221,0,6,0
1582540760157,2859619,0,6,0
1582540760257,2858017,0,6,0
1582540760357,2858442,0,6,0
1582540760457,2861533,0,6,0
1582540760557,2864111,0,6,0
1582540760657,2866510,0,6,0
1582540760757,2868394,0,6,0
1582540760868,2870625,0,6,0
1582540760968,2871793,0,6,0
1582540761068,2873052,0,6,0
1582540761168,2874237,0,6,0
1582540761268,2875398,0,6,0
1582540761368,2876611,0,6,0
1582540761468,2877764,0,6,0
1582540761568,2878681,0,6,0
1582540761668,2878533,0,6,0
1582540761768,2878961,0,6,0
1582540761868,2879211,0,6,0
1582540761968,2879628,0,6,0
1582540762069,2880236,0,6,0
1582540762169,2881005,0,6,0
1582540762269,2880469,0,6,0
1582540762369,2880336,0,6,0
1582540762469,2880728,0,6,0
1582540762569,2881328,0,6,0
1582540762669,2882090,0,6,0
1582540762769,2883040,0,6,0
1582540762870,2883551,0,6,0
1582540762969,2883174,0,6,0
1582540763069,2883275,0,6,0
1582540763159,2883497,0,6,0
1582540763260,2883803,0,6,0
1582540763360,2884117,0,6,0
1582540763459,2884764,0,6,0
1582540763559,2884035,0,6,0
1582540763659,2883286,0,6,0
1582540763760,2883000,0,6,0
1582540763860,2882882,0,6,0
1582540763959,2882852,0,6,0
1582540764059,2883111,0,6,0
1582540764160,2883082,0,6,0
1582540764260,2882053,0,6,0
1582540764360,2881277,0,6,0
1582540764460,2880824,0,6,0
1582540764560,2880597,0,6,0
1582540764660,2880571,0,6,0
1582540764762,2881055,0,6,0
1582540764860,2880835,0,6,0
1582540764960,2879917,0,6,0
1582540765060,2879377,0,6,0
1582540765162,2879243,0,6,0
1582540765262,2879225,0,6,0
1582540765362,2879850,0,6,0
1582540765462,2880572,0,6,0
1582540765561,2879717,0,6,0
1582540765662,2878839,0,6,0
1582540765761,2878552,0,6,0
1582540765871,2878480,0,6,0
1582540765961,2878633,0,6,0
1582540766071,2879390,0,6,0
1582540766172,2879916,0,6,0
1582540766272,2878767,0,6,0
1582540766372,2878072,0,6,0
1582540766470,2877818,0,6,0
1582540766571,2877806,0,6,0
1582540766670,2877869,0,6,0
1582540766770,2878579,0,6,0
1582540766871,2879128,0,6,0
1582540766970,2877941,0,6,0
1582540767070,2877064,0,6,0
1582540767171,2877011,0,6,0
1582540767271,2877115,0,6,0
1582540767371,2877080,0,6,0
1582540767472,2877873,0,6,0
1582540767571,2878514,0,6,0
1582540767671,2877496,0,6,0
1582540767772,2876828,0,6,0
1582540767872,2876699,0,6,0
1582540767971,2876840,0,6,0
1582540768071,2876975,0,6,0
1582540768172,2877725,0,6,0
1582540768272,2878387,0,6,0
1582540768373,2877306,0,6,0
1582540768472,2876934,0,6,0
1582540768571,2876885,0,6,0
1582540768672,2876999,0,6,0
1582540768772,2877427,0,6,0
1582540768873,2878258,0,6,0
1582540768972,2878119,0,6,0
1582540769072,2877180,0,6,0
1582540769172,2876871,0,6,0
1582540769263,2876861,0,6,0
1582540769362,2876979,0,6,0
1582540769462,2877402,0,6,0
1582540769562,2878195,0,6,0
1582540769662,2877742,0,6,0
1582540769762,2876711,0,6,0
1582540769863,2876397,0,6,0
1582540769962,2876402,0,6,0
1582540770062,2876495,0,6,0
1582540770163,2876908,0,6,0
1582540770262,2877571,0,6,0
1582540770362,2876630,0,6,0
1582540770463,2875878,0,6,0
1582540770563,2875672,0,6,0
1582540770663,2875554,0,6,0
1582540770763,2875713,0,6,0
1582540770863,2876361,0,6,0
1582540770963,2876864,0,6,0
1582540771064,2876036,0,6,0
1582540771174,2875169,0,6,0
1582540771274,2875182,0,6,0
1582540771374,2875120,0,6,0
1582540771474,2875564,0,6,0
1582540771574,2876024,0,6,0
1582540771674,2877009,0,6,0
1582540771774,2876236,0,6,0
1582540771874,2875628,0,6,0
1582540771974,2875544,0,6,0
1582540772074,2875848,0,6,0
1582540772174,2876106,0,6,0
1582540772274,2876825,0,6,0
1582540772374,2877741,0,6,0
1582540772474,2878237,0,6,0
1582540772574,2877673,0,6,0
1582540772674,2877741,0,6,0
1582540772774,2878108,0,6,0
1582540772874,2878621,0,6,0
1582540772974,2879119,0,6,0
1582540773074,2880128,0,6,0
1582540773165,2881119,0,6,0
1582540773265,2880951,0,6,0
1582540773365,2882078,0,6,0
1582540773465,2883403,0,6,0
1582540773565,2884856,0,6,0
1582540773666,2885216,0,6,0
1582540773766,2884776,0,6,0
1582540773865,2883995,0,6,0
1582540773965,2877966,0,6,0
1582540774066,2875123,0,6,0
1582540774166,2859930,0,6,0
1582540774265,2856003,0,6,0
1582540774366,2852962,0,6,0
1582540774466,2850228,0,6,0
1582540774566,2854043,0,6,0
1582540774669,2859811,0,6,0
1582540774767,2865416,0,6,0
1582540774867,2865077,0,6,0
1582540774967,2866254,0,6,0
1582540775067,2866015,0,6,0
1582540775167,2866913,0,6,0
1582540775268,2867049,0,6,0
1582540775367,2866684,0,6,0
1582540775467,2866529,0,6,0
1582540775567,2866414,0,6,0
1582540775667,2860570,0,6,0
1582540775767,2846264,0,6,0
1582540775867,2855521,0,6,0
1582540775967,2872276,0,6,0
1582540776067,2883657,1,6,n
1582540776168,2882710,1,6,n
1582540776268,2881996,1,6,n
1582540776367,2881033,1,6,n
1582540776468,2880128,1,6,n
1582540776568,2863374,1,6,n
1582540776668,2857259,1,6,n
1582540776768,2849684,1,6,n
1582540776868,2844932,1,6,n
1582540776968,2840214,1,6,n
1582540777068,2840205,1,6,n
1582540777168,2841142,1,6,n
1582540777268,2838452,1,6,n
1582540777369,2834944,1,6,n
1582540777468,2833388,1,6,n
1582540777568,2836002,1,6,n
1582540777669,2838811,1,6,n
1582540777769,2842797,1,6,n
1582540777869,2845425,1,6,n
1582540777969,2840981,1,6,n
1582540778069,2827400,1,6,n
1582540778169,2827668,1,6,n
1582540778269,2833189,1,6,n
1582540778369,2840825,1,6,n
1582540778469,2847212,1,6,n
1582540778569,2849588,1,6,n
1582540778669,2841372,1,6,n
1582540778770,2837098,1,6,n
1582540778870,2831899,1,6,n
1582540778969,2812480,1,6,n
1582540779069,2808816,1,6,n
1582540779170,2812524,1,6,n
1582540779270,2818376,1,6,n
1582540779370,2823823,1,6,n
1582540779470,2827649,1,6,n
1582540779570,2830002,1,6,n
1582540779670,2831313,1,6,n
1582540779770,2831081,1,6,n
1582540779870,2829947,1,6,n
1582540779970,2829297,1,6,n
1582540780071,2827673,1,6,n
1582540780170,2825023,1,6,n
1582540780270,2821627,1,6,n
1582540780371,2816205,1,6,n
1582540780470,2804541,1,6,n
1582540780570,2799447,1,6,n
1582540780671,2800747,1,6,n
1582540780781,2801631,1,6,n
1582540780882,2802431,1,6,n
1582540780981,2809455,1,6,n
1582540781081,2817555,1,6,n
1582540781181,2810156,1,6,n
1582540781282,2827480,1,6,n
1582540781381,2847243,1,6,n
1582540781481,2860474,1,6,n
1582540781582,2847844,1,6,n
1582540781681,2838370,1,6,n
1582540781781,2823977,1,6,n
1582540781882,2818508,1,6,n
1582540781982,2814922,1,6,n
1582540782082,2809254,1,6,n
1582540782182,2804623,1,6,n
1582540782282,2801699,1,6,n
1582540782382,2800573,1,6,n
1582540782483,2799777,1,6,n
1582540782582,2799546,1,6,n
1582540782682,2799758,1,6,n
1582540782782,2798607,1,6,n
1582540782882,2795928,1,6,n
1582540782982,2794387,1,6,n
1582540783084,2798745,1,6,n
1582540783172,2807718,1,6,n
1582540783272,2810510,1,6,n
1582540783373,2804647,1,6,n
1582540783472,2801859,1,6,n
1582540783572,2800399,1,6,n
1582540783673,2799162,1,6,n
1582540783772,2792891,1,6,n
1582540783873,2795001,1,6,n
1582540783973,2799171,1,6,n
1582540784073,2799843,1,6,n
1582540784173,2798764,1,6,n
1582540784273,2796974,1,6,n
1582540784373,2796417,1,6,n
1582540784473,2795606,1,6,n
1582540784574,2793703,1,6,n
1582540784673,2795176,1,6,n
1582540784773,2793982,1,6,n
1582540784874,2794154,1,6,n
1582540784973,2793193,1,6,n
1582540785073,2791393,1,6,n
1582540785174,2791061,1,6,n
1582540785274,2793279,1,6,n
1582540785374,2789655,1,6,n
1582540785474,2787932,1,6,n
1582540785574,2790093,1,6,n
1582540785674,2791275,1,6,n
1582540785785,2789329,1,6,n
1582540785884,2791898,1,6,n
1582540785984,2790166,1,6,n
1582540786085,2792523,1,6,n
1582540786184,2795661,1,6,n
1582540786285,2792310,1,6,n
1582540786385,2791815,1,6,n
1582540786484,2791921,1,6,n
1582540786575,2792271,1,6,n
1582540786676,2792441,1,6,n
1582540786775,2794028,1,6,n
1582540786875,2798852,1,6,n
1582540786975,2804154,1,6,n
1582540787075,2808394,0,6,0
1582540787175,2811016,0,6,0
1582540787278,2812353,0,6,0
1582540787385,2813640,0,6,0
1582540787485,2812464,0,6,0
1582540787586,2814850,0,6,0
1582540787685,2821726,0,6,0
1582540787785,2832666,0,6,0
1582540787885,2838277,0,6,0
1582540787989,2840814,0,6,0
1582540788087,2839709,0,6,0
1582540788186,2838306,0,6,0
1582540788286,2837501,0,6,0
1582540788387,2836070,0,6,0
1582540788486,2835058,0,6,0
1582540788586,2834549,0,6,0
1582540788687,2834826,0,6,0
1582540788787,2837382,0,6,0
1582540788923,2844234,0,6,0
1582540788976,2848522,0,6,0
1582540789078,2847535,0,6,0
1582540789176,2846436,0,6,0
1582540789276,2846749,0,6,0
1582540789376,2848008,0,6,0
