timestamp,ppg,label,stage,hand
1582032886065,2680488,0.0,0,0
1582032886155,2680542,0.0,0,0
1582032886257,2680643,0.0,0,0
1582032886355,2680591,0.0,0,0
1582032886455,2680616,0.0,0,0
1582032886556,2680636,0.0,0,0
1582032886655,2680621,0.0,0,0
1582032886755,2680668,0.0,0,0
1582032886856,2680624,0.0,0,0
1582032886958,2680584,0.0,0,0
1582032887056,2680622,0.0,0,0
1582032887157,2680534,0.0,0,0
1582032887256,2680603,0.0,0,0
1582032887356,2680468,0.0,0,0
1582032887457,2680657,0.0,0,0
1582032887556,2680477,0.0,0,0
1582032887656,2680638,0.0,0,0
1582032887757,2680634,0.0,0,0
1582032887856,2680645,0.0,0,0
1582032887956,2680625,0.0,0,0
1582032888058,2680601,0.0,0,0
1582032888158,2680666,0.0,0,0
1582032888258,2680724,0.0,0,0
1582032888358,2680537,0.0,0,0
1582032888457,2680521,0.0,0,0
1582032888557,2680704,0.0,0,0
1582032888658,2680457,0.0,0,0
1582032888757,2680629,0.0,0,0
1582032888857,2680564,0.0,0,0
1582032888958,2680588,0.0,0,0
1582032889057,2680601,0.0,0,0
1582032889157,2680592,0.0,0,0
1582032889257,2680583,0.0,0,0
1582032889357,2680667,0.0,0,0
1582032889457,2680524,0.0,0,0
1582032889558,2680675,0.0,0,0
1582032889657,2680700,0.0,0,0
1582032889757,2680618,0.0,0,0
1582032889868,2680513,0.0,0,0
1582032889968,2680517,0.0,0,0
1582032890068,2680539,0.0,0,0
1582032890168,2680630,0.0,0,0
1582032890268,3940028,0.0,0,0
1582032890368,2087244,0.0,0,0
1582032890469,1958621,0.0,0,0
1582032890568,1926231,0.0,0,0
1582032890658,1921375,0.0,0,0
1582032890758,1930227,0.0,0,0
1582032890858,1948103,0.0,0,0
1582032890959,1996321,0.0,0,0
1582032891059,1944870,0.0,0,0
1582032891158,1933048,0.0,0,0
1582032891258,1954734,0.0,0,0
1582032891359,2067142,0.0,0,0
1582032891458,2143542,0.0,0,0
1582032891558,2560375,0.0,0,0
1582032891659,2273977,0.0,0,0
1582032891759,2018347,0.0,0,0
1582032891858,3249819,0.0,0,0
1582032891959,3340993,0.0,0,0
1582032892059,3272034,0.0,0,0
1582032892159,3259619,0.0,0,0
1582032892260,3269955,0.0,0,0
1582032892359,3315097,0.0,0,0
1582032892459,3378173,0.0,0,0
1582032892559,3429851,0.0,0,0
1582032892660,3505561,0.0,0,0
1582032892759,3509787,0.0,0,0
1582032892870,3593188,0.0,0,0
1582032892970,3381481,0.0,0,0
1582032893070,3552615,0.0,0,0
1582032893172,3549503,0.0,0,0
1582032893270,2451312,0.0,0,0
1582032893370,2161732,0.0,0,0
1582032893471,2293331,0.0,0,0
1582032893570,2863483,0.0,0,0
1582032893671,2365763,0.0,0,0
1582032893772,2097484,0.0,0,0
1582032893871,2065945,0.0,0,0
1582032893970,2008955,0.0,0,0
1582032894071,1984875,0.0,0,0
1582032894171,1980742,0.0,0,0
1582032894271,1994106,0.0,0,0
1582032894371,2023838,0.0,0,0
1582032894471,2065094,0.0,0,0
1582032894571,2244569,0.0,0,0
1582032894671,2298171,0.0,0,0
1582032894771,2279299,0.0,0,0
1582032894871,2167380,0.0,0,0
1582032894972,2080553,0.0,0,0
1582032895071,2099114,0.0,0,0
1582032895171,2176082,0.0,0,0
1582032895272,2537815,0.0,0,0
1582032895371,3450907,0.0,0,0
1582032895472,3351044,0.0,0,0
1582032895572,3034762,0.0,0,0
1582032895672,2796049,0.0,0,0
1582032895762,3407291,0.0,0,0
1582032895862,3598113,0.0,0,0
1582032895961,3326613,0.0,0,0
1582032896062,3194279,0.0,0,0
1582032896162,3207094,0.0,0,0
1582032896262,3234274,0.0,0,0
1582032896362,3614023,0.0,0,0
1582032896463,3436524,0.0,0,0
1582032896562,3582132,0.0,0,0
1582032896662,3518123,0.0,0,0
1582032896763,3367320,0.0,0,0
1582032896862,3477886,0.0,0,0
1582032896962,3497668,0.0,0,0
1582032897063,3490787,0.0,0,0
1582032897162,3503734,0.0,0,0
1582032897262,3513281,0.0,0,0
1582032897363,3784289,0.0,0,0
1582032897462,3562317,0.0,0,0
1582032897562,3442777,0.0,0,0
1582032897663,3521635,0.0,0,0
1582032897822,3527258,0.0,0,0
1582032897862,3564184,0.0,0,0
1582032897968,3734900,0.0,0,0
1582032898063,3571255,0.0,0,0
1582032898163,3468275,0.0,0,0
1582032898264,3470519,0.0,0,0
1582032898362,3640342,0.0,0,0
1582032898463,3584190,0.0,0,0
1582032898565,3570030,0.0,0,0
1582032898665,3575430,0.0,0,0
1582032898765,3594032,0.0,0,0
1582032898867,3602262,0.0,0,0
1582032898965,3597124,0.0,0,0
1582032899092,3592887,0.0,0,0
1582032899165,3592180,0.0,0,0
1582032899264,3593130,0.0,0,0
1582032899364,3590998,0.0,0,0
1582032899465,3589659,0.0,0,0
1582032899565,3590218,0.0,0,0
1582032899664,3589924,0.0,0,0
1582032899765,3590223,0.0,0,0
1582032899865,3591523,0.0,0,0
1582032899964,3590853,0.0,0,0
1582032900065,3596331,0.0,0,0
1582032900164,3596263,0.0,0,0
1582032900264,3542399,0.0,0,0
1582032900369,3531756,0.0,0,0
1582032900465,3536684,0.0,0,0
1582032900564,3542312,0.0,0,0
1582032900665,3573957,0.0,0,0
1582032900765,3573893,0.0,0,0
1582032900865,3571711,0.0,0,0
1582032900967,3569596,0.0,0,0
1582032901065,3566565,0.0,0,0
1582032901165,3563127,0.0,0,0
1582032901266,3560957,0.0,0,0
1582032901365,3558167,0.0,0,0
1582032901465,3555802,0.0,0,0
1582032901566,3552857,0.0,0,0
1582032901665,3550844,0.0,0,0
1582032901765,3550070,0.0,0,0
1582032901866,3549262,0.0,0,0
1582032901965,3548595,0.0,0,0
1582032902065,3548684,0.0,0,0
1582032902166,3548569,0.0,0,0
1582032902267,3549463,0.0,0,0
1582032902366,3545355,0.0,0,0
1582032902467,3531534,0.0,0,0
1582032902566,3531926,0.0,0,0
1582032902666,3531204,0.0,0,0
1582032902767,3529102,0.0,0,0
1582032902866,3526680,0.0,0,0
1582032902968,3524995,0.0,0,0
1582032903067,3523730,0.0,0,0
1582032903167,3523661,0.0,0,0
1582032903266,3520030,0.0,0,0
1582032903367,3517501,0.0,0,0
1582032903467,3514452,0.0,0,0
1582032903566,3513547,0.0,0,0
1582032903667,3513838,0.0,0,0
1582032903767,3510636,0.0,0,0
1582032903867,3506047,0.0,0,0
1582032903967,3502516,0.0,0,0
1582032904067,3500549,0.0,0,0
1582032904167,3495522,0.0,0,0
1582032904268,3486934,0.0,0,0
1582032904368,3481740,0.0,0,0
1582032904468,3477113,0.0,0,0
1582032904569,3473726,0.0,0,0
1582032904668,3471003,0.0,0,0
1582032904767,3468483,0.0,0,0
1582032904868,3466265,0.0,0,0
1582032904968,3462635,0.0,0,0
1582032905068,3461007,0.0,0,0
1582032905169,3459889,0.0,0,0
1582032905278,3461377,0.0,0,0
1582032905378,3462400,0.0,0,0
1582032905479,3460650,0.0,0,0
1582032905578,3459920,0.0,0,0
1582032905678,3461019,0.0,0,0
1582032905779,3461897,0.0,0,0
1582032905878,3462956,0.0,0,0
1582032905980,3460941,0.0,0,0
1582032906069,3458216,0.0,0,0
1582032906168,3456802,0.0,0,0
1582032906268,3457426,0.0,0,0
1582032906369,3458033,0.0,0,0
1582032906469,3456779,0.0,0,0
1582032906569,3453198,0.0,0,0
1582032906669,3450725,0.0,0,0
1582032906769,3449171,0.0,0,0
1582032906869,3447437,0.0,0,0
1582032906970,3444968,0.0,0,0
1582032907069,3441879,0.0,0,0
1582032907169,3443461,0.0,0,0
1582032907269,3445028,0.0,0,0
1582032907369,3445588,0.0,0,0
1582032907469,3446178,0.0,0,0
1582032907570,3443987,0.0,0,0
1582032907735,3443367,0.0,0,0
1582032907776,3442914,0.0,0,0
1582032907871,3446273,0.0,0,0
1582032907970,3443964,0.0,0,0
1582032908069,3441659,0.0,0,0
1582032908171,3446073,0.0,0,0
1582032908270,3448591,0.0,0,0
1582032908372,3450500,0.0,0,0
1582032908474,3452476,0.0,0,0
1582032908573,3452019,0.0,0,0
1582032908671,3452277,0.0,0,0
1582032908772,3453354,0.0,0,0
1582032908871,3454669,0.0,0,0
1582032908971,3454088,0.0,0,0
1582032909071,3454878,0.0,0,0
1582032909171,3459020,0.0,0,0
1582032909271,3460549,0.0,0,0
1582032909372,3460582,0.0,0,0
1582032909471,3458826,0.0,0,0
1582032909571,3455690,0.0,0,0
1582032909672,3454995,0.0,0,0
1582032909771,3455067,0.0,0,0
1582032909871,3451337,0.0,0,0
1582032909972,3452288,0.0,0,0
1582032910071,3454776,0.0,0,0
1582032910172,3454590,0.0,0,0
1582032910272,3454322,0.0,0,0
1582032910372,3450957,0.0,0,0
1582032910472,3435954,0.0,0,0
1582032910572,3441639,0.0,0,0
1582032910672,3442152,0.0,0,0
1582032910772,3440036,0.0,0,0
1582032910873,3438650,0.0,0,0
1582032910972,3435490,0.0,0,0
1582032911072,3433354,0.0,0,0
1582032911173,3430634,0.0,0,0
1582032911272,3427052,0.0,0,0
1582032911372,3427557,0.0,0,0
1582032911473,3424704,0.0,0,0
1582032911572,3420225,0.0,0,0
1582032911673,3418259,0.0,0,0
1582032911773,3414556,0.0,0,0
1582032911872,3415587,0.0,0,0
1582032911972,3379956,0.0,0,0
1582032912073,3605465,0.0,0,0
1582032912173,3628372,0.0,0,0
1582032912275,3627891,0.0,0,0
1582032912374,3418963,0.0,0,0
1582032912477,3409180,0.0,0,0
1582032912572,3395854,0.0,0,0
1582032912678,3384531,0.0,0,0
1582032912777,3386946,0.0,0,0
1582032912875,3389453,0.0,0,0
1582032912975,3398100,0.0,0,0
1582032913073,3398417,0.0,0,0
1582032913175,3397051,0.0,0,0
1582032913274,3450327,0.0,0,0
1582032913454,3452503,0.0,0,0
1582032913480,3448061,0.0,0,0
1582032913577,3446985,0.0,0,0
1582032913674,3447249,0.0,0,0
1582032913774,3443040,0.0,0,0
1582032913875,3440060,0.0,0,0
1582032913975,3439077,0.0,0,0
1582032914075,3438754,0.0,0,0
1582032914174,3433743,0.0,0,0
1582032914273,3428282,0.0,0,0
1582032914373,3419208,0.0,0,0
1582032914474,3411284,0.0,0,0
1582032914573,3405673,0.0,0,0
1582032914679,3394395,0.0,0,0
1582032914777,3315030,0.0,0,0
1582032914884,3358801,0.0,0,0
1582032914975,3400038,0.0,0,0
1582032915075,3389657,0.0,0,0
1582032915175,3402260,0.0,0,0
1582032915274,3410115,0.0,0,0
1582032915376,3412151,0.0,0,0
1582032915478,3410521,0.0,0,0
1582032915575,3409198,0.0,0,0
1582032915676,3410084,0.0,0,0
1582032915775,3410616,0.0,0,0
1582032915877,3410577,0.0,0,0
1582032915977,3410362,0.0,0,0
1582032916076,3409990,0.0,0,0
1582032916176,3410010,0.0,0,0
1582032916277,3479889,0.0,0,0
1582032916378,3479262,0.0,0,0
1582032916476,3433679,0.0,0,0
1582032916577,3400446,0.0,0,0
1582032916676,3413607,0.0,0,0
1582032916779,3412523,0.0,0,0
1582032916878,3418925,0.0,0,0
1582032916977,3410802,0.0,0,0
1582032917078,3438536,0.0,0,0
1582032917179,3445513,0.0,0,0
1582032917278,3498699,0.0,0,0
1582032917378,3727673,0.0,0,0
1582032917480,3784473,0.0,0,0
1582032917577,3773500,0.0,0,0
1582032917677,3750809,0.0,0,0
1582032917777,3405460,0.0,0,0
1582032917877,3387571,0.0,0,0
1582032917977,3390335,0.0,0,0
1582032918077,3389549,0.0,0,0
1582032918177,3382297,0.0,0,0
1582032918277,3435841,0.0,0,0
1582032918381,3423826,0.0,0,0
1582032918479,3410877,0.0,0,0
1582032918578,3402596,0.0,0,0
1582032918679,3414744,0.0,0,0
1582032918778,3410134,0.0,0,0
1582032918879,3401690,0.0,0,0
1582032918980,3392152,0.0,0,0
1582032919079,3386467,0.0,0,0
1582032919179,3380151,0.0,0,0
1582032919279,3375220,0.0,0,0
1582032919379,3372870,0.0,0,0
1582032919479,3368105,0.0,0,0
1582032919580,3359532,0.0,0,0
1582032919714,3351390,0.0,0,0
1582032919778,3350432,0.0,0,0
1582032919878,3348482,0.0,0,0
1582032919977,3347664,0.0,0,0
1582032920080,3347589,0.0,0,0
1582032920180,3344754,0.0,0,0
1582032920280,3343240,0.0,0,0
1582032920379,3342783,0.0,0,0
1582032920479,3340538,0.0,0,0
1582032920578,3341198,0.0,0,0
1582032920678,3337456,0.0,0,0
1582032920779,3333741,0.0,0,0
1582032920878,3331310,0.0,0,0
1582032920979,3325675,0.0,0,0
1582032921079,3319134,0.0,0,0
1582032921180,3315449,0.0,0,0
1582032921279,3311036,0.0,0,0
1582032921382,3306474,0.0,0,0
1582032921482,3305630,0.0,0,0
1582032921581,3304313,0.0,0,0
1582032921682,3302658,0.0,0,0
1582032921781,3297535,0.0,0,0
1582032921881,3294148,0.0,0,0
1582032921982,3292179,0.0,0,0
1582032922081,3290761,0.0,0,0
1582032922179,3287494,0.0,0,0
1582032922281,3281603,0.0,0,0
1582032922381,3283734,0.0,0,0
1582032922481,3284683,0.0,0,0
1582032922581,3287285,0.0,0,0
1582032922681,3290021,0.0,0,0
1582032922780,3287081,0.0,0,0
1582032922880,3284202,0.0,0,0
1582032922980,3282762,0.0,0,0
1582032923080,3281282,0.0,0,0
1582032923181,3280253,0.0,0,0
1582032923280,3279227,0.0,0,0
1582032923380,3275697,0.0,0,0
1582032923481,3274308,0.0,0,0
1582032923580,3273457,0.0,0,0
1582032923681,3272982,0.0,0,0
1582032923781,3272770,0.0,0,0
1582032923881,3270910,0.0,0,0
1582032923980,3269558,0.0,0,0
1582032924081,3269090,0.0,0,0
1582032924181,3268826,0.0,0,0
1582032924281,3269171,0.0,0,0
1582032924382,3266618,0.0,0,0
1582032924481,3264052,0.0,0,0
1582032924581,3263202,0.0,0,0
1582032924682,3263875,0.0,0,0
1582032924781,3265839,0.0,0,0
1582032924881,3266322,0.0,0,0
1582032924982,3266211,0.0,0,0
1582032925081,3267164,0.0,0,0
1582032925181,3268818,0.0,0,0
1582032925282,3271236,0.0,0,0
1582032925381,3269673,0.0,0,0
1582032925481,3266577,0.0,0,0
1582032925582,3265681,0.0,0,0
1582032925682,3265283,0.0,0,0
1582032925782,3265996,0.0,0,0
1582032925882,3263453,0.0,0,0
1582032925982,3260707,0.0,0,0
1582032926082,3261416,0.0,0,0
1582032926183,3263794,0.0,0,0
1582032926282,3264974,0.0,0,0
1582032926382,3266046,0.0,0,0
1582032926483,3264020,0.0,0,0
1582032926582,3258313,0.0,0,0
1582032926682,3253120,0.0,0,0
1582032926783,3277803,0.0,0,0
1582032926883,3298401,0.0,0,0
1582032926982,3300064,0.0,0,0
1582032927084,3299503,0.0,0,0
1582032927182,3299815,0.0,0,0
1582032927283,3299840,0.0,0,0
1582032927383,3300369,0.0,0,0
1582032927483,3300350,0.0,0,0
1582032927583,3301129,0.0,0,0
1582032927683,3302717,0.0,0,0
1582032927783,3303778,0.0,0,0
1582032927883,3304291,0.0,0,0
1582032927984,3304362,0.0,0,0
1582032928083,3302527,0.0,0,0
1582032928194,3301052,0.0,0,0
1582032928284,3300718,0.0,0,0
1582032928384,3301887,0.0,0,0
1582032928483,3306117,0.0,0,0
1582032928636,3311067,0.0,0,0
1582032928684,3313290,0.0,0,0
1582032928784,3313577,0.0,0,0
1582032928884,3314109,0.0,0,0
1582032928985,3314782,0.0,0,0
1582032929090,3315679,0.0,0,0
1582032929184,3316113,0.0,0,0
1582032929284,3317162,0.0,0,0
1582032929384,3316730,0.0,0,0
1582032929484,3318345,0.0,0,0
1582032929586,3360842,0.0,0,0
1582032929684,3402092,0.0,0,0
1582032929785,3371629,0.0,0,0
1582032929886,3363817,0.0,0,0
1582032929986,3342626,0.0,0,0
1582032930086,3330557,0.0,0,0
1582032930184,3322265,0.0,0,0
1582032930284,3318528,0.0,0,0
1582032930385,3312508,0.0,0,0
1582032930486,3302109,0.0,0,0
1582032930585,3291895,0.0,0,0
1582032930687,3286246,0.0,0,0
1582032930785,3288997,0.0,0,0
1582032930884,3285959,0.0,0,0
1582032930986,3287486,0.0,0,0
1582032931086,3288958,0.0,0,0
1582032931185,3291673,0.0,0,0
1582032931286,3296093,0.0,0,0
1582032931386,3301359,0.0,0,0
1582032931485,3306759,0.0,0,0
1582032931587,3308919,0.0,0,0
1582032931686,3315345,0.0,0,0
1582032931786,3319564,0.0,0,0
1582032931887,3314082,0.0,0,0
1582032931988,3310330,0.0,0,0
1582032932086,3308831,0.0,0,0
1582032932187,3307960,0.0,0,0
1582032932288,3309117,0.0,0,0
1582032932386,3310082,0.0,0,0
1582032932487,3310166,0.0,0,0
1582032932586,3310743,0.0,0,0
1582032932688,3309750,0.0,0,0
1582032932787,3306963,0.0,0,0
1582032932887,3305046,0.0,0,0
1582032932988,3304118,0.0,0,0
1582032933087,3302861,0.0,0,0
1582032933187,3301862,0.0,0,0
1582032933287,3299602,0.0,0,0
1582032933387,3298438,0.0,0,0
1582032933497,3298130,0.0,0,0
1582032933597,3296374,0.0,0,0
1582032933698,3297134,0.0,0,0
1582032933797,3295145,0.0,0,0
1582032933898,3293385,0.0,0,0
1582032933998,3293085,0.0,0,0
1582032934097,3293628,0.0,0,0
1582032934198,3295241,0.0,0,0
1582032934298,3291648,0.0,0,0
1582032934398,3283728,0.0,0,0
1582032934503,3283701,0.0,0,0
1582032934590,3283715,0.0,0,0
1582032934687,3284747,0.0,0,0
1582032934789,3289005,0.0,0,0
1582032934890,3287147,0.0,0,0
1582032934993,3288555,0.0,0,0
1582032935087,3287246,0.0,0,0
1582032935188,3285132,0.0,0,0
1582032935287,3286052,0.0,0,0
1582032935389,3283670,0.0,0,0
1582032935488,3282356,0.0,0,0
1582032935590,3282080,0.0,0,0
1582032935690,3282145,0.0,0,0
1582032935790,3281950,0.0,0,0
1582032935889,3278599,0.0,0,0
1582032935987,3276214,0.0,0,0
1582032936091,3274368,0.0,0,0
1582032936189,3273213,0.0,0,0
1582032936290,3272350,0.0,0,0
1582032936390,3270036,0.0,0,0
1582032936490,3268229,0.0,0,0
1582032936590,3267361,0.0,0,0
1582032936691,3267167,0.0,0,0
1582032936790,3268004,0.0,0,0
1582032936890,3266150,0.0,0,0
1582032936992,3261047,0.0,0,0
1582032937089,3258262,0.0,0,0
1582032937189,3256475,0.0,0,0
1582032937289,3255404,0.0,0,0
1582032937389,3255287,0.0,0,0
1582032937489,3252191,0.0,0,0
1582032937590,3250057,0.0,0,0
1582032937700,3250113,0.0,0,0
1582032937799,3250055,0.0,0,0
1582032937900,3250826,0.0,0,0
1582032937999,3252686,0.0,0,0
1582032938100,3253845,0.0,0,0
1582032938200,3254476,0.0,0,0
1582032938300,3255496,0.0,0,0
1582032938400,3256670,0.0,0,0
1582032938501,3258362,0.0,0,0
1582032938600,3257172,0.0,0,0
1582032938700,3255548,0.0,0,0
1582032938801,3255570,0.0,0,0
1582032938900,3255837,0.0,0,0
1582032939001,3256298,0.0,0,0
1582032939101,3255647,0.0,0,0
1582032939200,3252376,0.0,0,0
1582032939301,3250588,0.0,0,0
1582032939403,3249552,0.0,0,0
1582032939501,3249038,0.0,0,0
1582032939601,3248765,0.0,0,0
1582032939701,3246954,0.0,0,0
1582032939801,3243122,0.0,0,0
1582032939901,3240993,0.0,0,0
1582032940002,3239883,0.0,1,0
1582032940101,3239203,0.0,1,0
1582032940201,3239416,0.0,1,0
1582032940302,3238705,0.0,1,0
1582032940401,3236724,0.0,1,0
1582032940501,3236582,0.0,1,0
1582032940602,3237305,0.0,1,0
1582032940701,3238248,0.0,1,0
1582032940801,3240087,0.0,1,0
1582032940902,3239852,0.0,1,0
1582032941002,3239761,0.0,1,0
1582032941092,3240822,0.0,1,0
1582032941193,3241687,0.0,1,0
1582032941292,3243381,0.0,1,0
1582032941392,3245243,0.0,1,0
1582032941493,3244435,0.0,1,0
1582032941592,3243823,0.0,1,0
1582032941692,3243839,0.0,1,0
1582032941794,3243311,0.0,1,0
1582032941894,3244514,0.0,1,0
1582032941994,3245611,0.0,1,0
1582032942093,3244630,0.0,1,0
1582032942194,3245975,0.0,1,0
1582032942294,3248130,0.0,1,0
1582032942395,3249525,0.0,1,0
1582032942494,3251715,0.0,1,0
1582032942594,3252294,0.0,1,0
1582032942694,3252084,0.0,1,0
1582032942793,3252604,0.0,1,0
1582032942893,3253996,0.0,1,0
1582032942994,3255384,0.0,1,0
1582032943093,3256681,0.0,1,0
1582032943193,3255575,0.0,1,0
1582032943294,3254204,0.0,1,0
1582032943393,3254309,0.0,1,0
1582032943493,3255326,0.0,1,0
1582032943594,3257061,0.0,1,0
1582032943704,3258817,0.0,1,0
1582032943803,3258536,0.0,1,0
1582032943904,3258329,0.0,1,0
1582032944004,3259528,0.0,1,0
1582032944104,3261309,0.0,1,0
1582032944205,3263884,0.0,1,0
1582032944304,3265725,0.0,1,0
1582032944404,3265879,0.0,1,0
1582032944505,3267504,0.0,1,0
1582032944594,3271102,0.0,1,0
1582032944694,3274643,0.0,1,0
1582032944795,3277932,0.0,1,0
1582032944894,3280233,0.0,1,0
1582032944994,3281677,0.0,1,0
1582032945095,3283520,0.0,1,0
1582032945194,3284832,0.0,1,0
1582032945294,3285693,0.0,1,0
1582032945395,3286872,0.0,1,0
1582032945495,3288550,0.0,1,0
1582032945595,3287695,0.0,1,0
1582032945695,3286775,0.0,1,0
1582032945795,3286410,0.0,1,0
1582032945895,3286450,0.0,1,0
1582032945996,3287166,0.0,1,0
1582032946095,3287329,0.0,1,0
1582032946195,3285814,0.0,1,0
1582032946297,3284770,0.0,1,0
1582032946395,3284338,0.0,1,0
1582032946495,3283889,0.0,1,0
1582032946596,3284016,0.0,1,0
1582032946695,3284013,0.0,1,0
1582032946795,3282891,0.0,1,0
1582032946896,3282054,0.0,1,0
1582032946997,3281699,0.0,1,0
1582032947096,3281484,0.0,1,0
1582032947197,3281540,0.0,1,0
1582032947296,3281470,0.0,1,0
1582032947398,3279785,0.0,1,0
1582032947497,3278342,0.0,1,0
1582032947607,3277713,0.0,1,0
1582032947697,3277156,0.0,1,0
1582032947797,3276935,0.0,1,0
1582032947906,3276561,0.0,1,0
1582032948006,3274861,0.0,1,0
1582032948108,3273315,0.0,1,0
1582032948197,3272298,0.0,1,0
1582032948297,3271728,0.0,1,0
1582032948397,3271523,0.0,1,0
1582032948497,3271839,0.0,1,0
1582032948597,3271298,0.0,1,0
1582032948697,3271377,0.0,1,0
1582032948797,3272067,0.0,1,0
1582032948897,3272987,0.0,1,0
1582032948998,3274091,0.0,1,0
1582032949097,3275029,0.0,1,0
1582032949197,3275018,0.0,1,0
1582032949298,3275336,0.0,1,0
1582032949397,3276006,0.0,1,0
1582032949498,3277260,0.0,1,0
1582032949608,3277793,0.0,1,0
1582032949697,3277708,0.0,1,0
1582032949807,3276840,0.0,1,0
1582032949908,3276207,0.0,1,0
1582032950008,3275585,0.0,1,0
1582032950108,3274841,0.0,1,0
1582032950208,3274942,0.0,1,0
1582032950308,3273948,0.0,1,0
1582032950408,3272559,0.0,1,0
1582032950508,3271844,0.0,1,0
1582032950608,3271221,0.0,1,0
1582032950698,3271864,0.0,1,0
1582032950799,3273120,0.0,1,0
1582032950898,3272666,0.0,1,0
1582032950999,3271574,0.0,1,0
1582032951099,3270840,0.0,1,0
1582032951198,3271026,0.0,1,0
1582032951298,3271892,0.0,1,0
1582032951400,3273467,0.0,1,0
1582032951499,3274046,0.0,1,0
1582032951599,3273990,0.0,1,0
1582032951699,3274315,0.0,1,0
1582032951799,3274944,0.0,1,0
1582032951899,3275591,0.0,1,0
1582032951999,3276500,0.0,1,0
1582032952099,3276563,0.0,1,0
1582032952199,3276267,0.0,1,0
1582032952300,3276357,0.0,1,0
1582032952399,3276959,0.0,1,0
1582032952499,3277417,0.0,1,0
1582032952600,3278344,0.0,1,0
1582032952709,3279211,0.0,1,0
1582032952799,3280459,0.0,1,0
1582032952910,3280831,0.0,1,0
1582032953010,3280634,0.0,1,0
1582032953111,3280672,0.0,1,0
1582032953211,3281058,0.0,1,0
1582032953310,3281583,0.0,1,0
1582032953410,3282294,0.0,1,0
1582032953511,3283427,0.0,1,0
1582032953611,3284215,0.0,1,0
1582032953710,3284087,0.0,1,0
1582032953811,3283982,0.0,1,0
1582032953911,3284126,0.0,1,0
1582032954010,3284444,0.0,1,0
1582032954111,3285111,0.0,1,0
1582032954211,3286019,0.0,1,0
1582032954311,3287138,0.0,1,0
1582032954413,3287597,0.0,1,0
1582032954512,3287366,0.0,1,0
1582032954612,3287773,0.0,1,0
1582032954713,3288102,0.0,1,0
1582032954812,3288708,0.0,1,0
1582032954912,3289706,0.0,1,0
1582032955014,3290517,0.0,1,0
1582032955112,3290606,0.0,1,0
1582032955212,3290574,0.0,1,0
1582032955312,3290801,0.0,1,0
1582032955411,3291257,0.0,1,0
1582032955511,3291900,0.0,1,0
1582032955612,3292887,0.0,1,0
1582032955702,3293832,0.0,1,0
1582032955802,3293487,0.0,1,0
1582032955902,3293475,0.0,1,0
1582032956001,3293456,0.0,1,0
1582032956102,3293293,0.0,1,0
1582032956203,3293190,0.0,1,0
1582032956302,3293413,0.0,1,0
1582032956402,3293598,0.0,1,0
1582032956503,3293115,0.0,1,0
1582032956602,3292974,0.0,1,0
1582032956702,3293280,0.0,1,0
1582032956803,3293620,0.0,1,0
1582032956902,3294210,0.0,1,0
1582032957002,3294735,0.0,1,0
1582032957103,3294676,0.0,1,0
1582032957202,3294517,0.0,1,0
1582032957303,3294809,0.0,1,0
1582032957403,3295338,0.0,1,0
1582032957503,3295960,0.0,1,0
1582032957603,3296726,0.0,1,0
1582032957704,3297006,0.0,1,0
1582032957803,3296998,0.0,1,0
1582032957903,3297093,0.0,1,0
1582032958003,3297378,0.0,1,0
1582032958113,3297637,0.0,1,0
1582032958213,3298012,0.0,1,0
1582032958314,3298512,0.0,1,0
1582032958414,3298400,0.0,1,0
1582032958513,3297679,0.0,1,0
1582032958614,3297018,0.0,1,0
1582032958714,3296629,0.0,1,0
1582032958813,3296411,0.0,1,0
1582032958914,3296134,0.0,1,0
1582032959014,3296373,0.0,1,0
1582032959115,3296247,0.0,1,0
1582032959215,3295817,0.0,1,0
1582032959314,3296018,0.0,1,0
1582032959414,3296383,0.0,1,0
1582032959515,3296869,0.0,1,0
1582032959614,3297748,0.0,1,0
1582032959714,3298608,0.0,1,0
1582032959815,3299150,0.0,1,0
1582032959914,3299308,0.0,1,0
1582032960014,3299871,0.0,1,0
1582032960115,3300468,0.0,1,0
1582032960216,3301193,0.0,1,0
1582032960305,3302155,0.0,1,0
1582032960405,3302909,0.0,1,0
1582032960505,3303170,0.0,1,0
1582032960605,3303146,0.0,1,0
1582032960705,3303280,0.0,1,0
1582032960805,3303218,0.0,1,0
1582032960905,3303287,0.0,1,0
1582032961006,3303429,0.0,1,0
1582032961105,3303710,0.0,1,0
1582032961205,3303175,0.0,1,0
1582032961306,3302520,0.0,1,0
1582032961405,3301850,0.0,1,0
1582032961505,3301163,0.0,1,0
1582032961606,3300845,0.0,1,0
1582032961705,3300745,0.0,1,0
1582032961805,3300608,0.0,1,0
1582032961906,3300295,0.0,1,0
1582032962014,3299283,0.0,1,0
1582032962106,3298155,0.0,1,0
1582032962206,3297110,0.0,1,0
1582032962305,3296373,0.0,1,0
1582032962407,3295846,0.0,1,0
1582032962507,3295586,0.0,1,0
1582032962606,3295664,0.0,1,0
1582032962706,3295877,0.0,1,0
1582032962807,3295960,0.0,1,0
1582032962906,3296697,0.0,1,0
1582032963008,3297126,0.0,1,0
1582032963107,3297946,0.0,1,0
1582032963206,3298812,0.0,1,0
1582032963306,3299623,0.0,1,0
1582032963407,3299875,0.0,1,0
1582032963507,3300501,0.0,1,0
1582032963607,3301218,0.0,1,0
1582032963708,3301763,0.0,1,0
1582032963807,3302626,0.0,1,0
1582032963917,3303099,0.0,1,0
1582032964018,3303005,0.0,1,0
1582032964117,3303125,0.0,1,0
1582032964217,3303303,0.0,1,0
1582032964318,3303271,0.0,1,0
1582032964418,3303391,0.0,1,0
1582032964518,3303509,0.0,1,0
1582032964618,3302917,0.0,1,0
1582032964717,3302125,0.0,1,0
1582032964817,3301197,0.0,1,0
1582032964918,3300452,0.0,1,0
1582032965018,3299913,0.0,1,0
1582032965119,3299514,0.0,1,0
1582032965219,3298999,0.0,1,0
1582032965318,3298152,0.0,1,0
1582032965418,3296965,0.0,1,0
1582032965519,3296164,0.0,1,0
1582032965618,3295434,0.0,1,0
1582032965718,3295057,0.0,1,0
1582032965819,3295195,0.0,1,0
1582032965918,3295530,0.0,1,0
1582032966020,3295369,0.0,1,0
1582032966109,3295537,0.0,1,0
1582032966208,3295361,0.0,1,0
1582032966309,3295194,0.0,1,0
1582032966409,3295088,0.0,1,0
1582032966509,3295017,0.0,1,0
1582032966609,3294766,0.0,1,0
1582032966709,3293989,0.0,1,0
1582032966809,3293159,0.0,1,0
1582032966909,3292228,0.0,1,0
1582032967010,3291617,0.0,1,0
1582032967109,3291146,0.0,1,0
1582032967209,3291052,0.0,1,0
1582032967310,3290544,0.0,1,0
1582032967409,3289161,0.0,1,0
1582032967509,3287584,0.0,1,0
1582032967610,3286545,0.0,1,0
1582032967720,3285637,0.0,1,0
1582032967809,3284907,0.0,1,0
1582032967920,3284813,0.0,1,0
1582032968021,3284759,0.0,1,0
1582032968120,3283367,0.0,1,0
1582032968220,3281848,0.0,1,0
1582032968320,3280525,0.0,1,0
1582032968420,3279527,0.0,1,0
1582032968521,3278389,0.0,1,0
1582032968620,3277984,0.0,1,0
1582032968720,3277657,0.0,1,0
1582032968821,3276958,0.0,1,0
1582032968921,3275664,0.0,1,0
1582032969021,3274690,0.0,1,0
1582032969121,3273834,0.0,1,0
1582032969221,3273280,0.0,1,0
1582032969321,3273559,0.0,1,0
1582032969421,3274436,0.0,1,0
1582032969521,3275237,0.0,1,0
1582032969621,3275450,0.0,1,0
1582032969722,3275970,0.0,1,0
1582032969821,3276756,0.0,1,0
1582032969921,3277451,0.0,1,0
1582032970022,3278297,0.0,1,0
1582032970121,3279370,0.0,1,0
1582032970221,3279587,0.0,1,0
1582032970322,3279248,0.0,1,0
1582032970421,3279460,0.0,1,0
1582032970521,3279568,0.0,1,0
1582032970623,3279543,0.0,1,0
1582032970721,3279815,0.0,1,0
1582032970821,3280086,0.0,1,0
1582032970922,3279339,0.0,1,0
1582032971022,3278420,0.0,1,0
1582032971112,3277576,0.0,1,0
1582032971213,3276957,0.0,1,0
1582032971312,3276478,0.0,1,0
1582032971412,3276319,0.0,1,0
1582032971513,3276401,0.0,1,0
1582032971612,3274723,0.0,1,0
1582032971712,3272925,0.0,1,0
1582032971813,3271622,0.0,1,0
1582032971912,3270511,0.0,1,0
1582032972012,3269524,0.0,1,0
1582032972113,3268924,0.0,1,0
1582032972212,3268527,0.0,1,0
1582032972313,3266662,0.0,1,0
1582032972413,3265474,0.0,1,0
1582032972513,3264439,0.0,1,0
1582032972613,3263529,0.0,1,0
1582032972723,3263144,0.0,1,0
1582032972823,3263376,0.0,1,0
1582032972923,3262835,0.0,1,0
1582032973024,3262293,0.0,1,0
1582032973123,3262298,0.0,1,0
1582032973223,3262677,0.0,1,0
1582032973324,3263061,0.0,1,0
1582032973423,3263554,0.0,1,0
1582032973523,3264036,0.0,1,0
1582032973624,3263195,0.0,1,0
1582032973723,3262203,0.0,1,0
1582032973824,3261992,0.0,1,0
1582032973924,3261821,0.0,1,0
1582032974024,3261802,0.0,1,0
1582032974124,3262085,0.0,1,0
1582032974224,3261969,0.0,1,0
1582032974324,3260294,0.0,1,0
1582032974424,3258998,0.0,1,0
1582032974525,3258292,0.0,1,0
1582032974614,3257945,0.0,1,0
1582032974714,3258106,0.0,1,0
1582032974815,3258181,0.0,1,0
1582032974914,3258070,0.0,1,0
1582032975015,3256621,0.0,1,0
1582032975115,3255620,0.0,1,0
1582032975215,3255227,0.0,1,0
1582032975314,3254862,0.0,1,0
1582032975415,3255157,0.0,1,0
1582032975515,3256058,0.0,1,0
1582032975615,3256792,0.0,1,0
1582032975715,3256418,0.0,1,0
1582032975815,3256434,0.0,1,0
1582032975915,3256840,0.0,1,0
1582032976015,3257438,0.0,1,0
1582032976115,3258548,0.0,1,0
1582032976215,3259795,0.0,1,0
1582032976317,3260254,0.0,1,0
1582032976415,3259920,0.0,1,0
1582032976515,3259853,0.0,1,0
1582032976616,3260186,0.0,1,0
1582032976716,3260701,0.0,1,0
1582032976815,3261601,0.0,1,0
1582032976916,3262425,0.0,1,0
1582032977017,3263169,0.0,1,0
1582032977116,3262324,0.0,1,0
1582032977217,3261871,0.0,1,0
1582032977316,3261782,0.0,1,0
1582032977416,3261802,0.0,1,0
1582032977517,3262349,0.0,1,0
1582032977616,3262935,0.0,1,0
1582032977716,3263401,0.0,1,0
1582032977818,3262684,0.0,1,0
1582032977926,3261470,0.0,1,0
1582032978016,3260838,0.0,1,0
1582032978122,3260596,0.0,1,0
1582032978217,3260377,0.0,1,0
1582032978317,3260592,0.0,1,0
1582032978417,3260961,0.0,1,0
1582032978517,3261494,0.0,1,0
1582032978618,3260893,0.0,1,0
1582032978718,3259654,0.0,1,0
1582032978817,3258899,0.0,1,0
1582032978917,3258251,0.0,1,0
1582032979018,3258069,0.0,1,0
1582032979117,3258078,0.0,1,0
1582032979217,3257979,0.0,1,0
1582032979318,3257317,0.0,1,0
1582032979417,3256189,0.0,1,0
1582032979518,3255465,0.0,1,0
1582032979618,3254782,0.0,1,0
1582032979717,3254599,0.0,1,0
1582032979817,3254797,0.0,1,0
1582032979928,3255759,0.0,1,0
1582032980028,3255904,0.0,1,0
1582032980128,3256474,0.0,1,0
1582032980228,3257213,0.0,1,0
1582032980328,3257950,0.0,1,0
1582032980428,3258492,0.0,1,0
1582032980529,3259467,0.0,1,0
1582032980628,3259367,0.0,1,0
1582032980729,3258664,0.0,1,0
1582032980819,3258247,0.0,1,0
1582032980918,3258014,0.0,1,0
1582032981018,3258144,0.0,1,0
1582032981119,3258494,0.0,1,0
1582032981218,3258598,0.0,1,0
1582032981318,3257617,0.0,1,0
1582032981419,3256606,0.0,1,0
1582032981519,3256025,0.0,1,0
1582032981619,3255962,0.0,1,0
1582032981719,3256101,0.0,1,0
1582032981819,3256211,0.0,1,0
1582032981919,3255200,0.0,1,0
1582032982019,3253749,0.0,1,0
1582032982119,3252950,0.0,1,0
1582032982219,3252385,0.0,1,0
1582032982320,3252120,0.0,1,0
1582032982419,3252139,0.0,1,0
1582032982519,3251922,0.0,1,0
1582032982620,3250393,0.0,1,0
1582032982719,3249075,0.0,1,0
1582032982830,3247799,0.0,1,0
1582032982931,3247175,0.0,1,0
1582032983030,3246776,0.0,1,0
1582032983131,3246771,0.0,1,0
1582032983231,3246520,0.0,1,0
1582032983330,3245848,0.0,1,0
1582032983430,3245701,0.0,1,0
1582032983531,3245641,0.0,1,0
1582032983630,3246019,0.0,1,0
1582032983730,3246675,0.0,1,0
1582032983831,3247711,0.0,1,0
1582032983931,3247682,0.0,1,0
1582032984030,3248415,0.0,1,0
1582032984131,3249249,0.0,1,0
1582032984231,3249896,0.0,1,0
1582032984331,3250810,0.0,1,0
1582032984432,3251815,0.0,1,0
1582032984531,3252418,0.0,1,0
1582032984631,3252098,0.0,1,0
1582032984731,3252392,0.0,1,0
1582032984831,3252539,0.0,1,0
1582032984931,3252627,0.0,1,0
1582032985032,3253080,0.0,1,0
1582032985131,3253719,0.0,1,0
1582032985231,3253953,0.0,1,0
1582032985332,3253360,0.0,1,0
1582032985431,3253111,0.0,1,0
1582032985531,3252891,0.0,1,0
1582032985632,3252815,0.0,1,0
1582032985732,3253233,0.0,1,0
1582032985832,3253490,0.0,1,0
1582032985932,3253400,0.0,1,0
1582032986032,3253094,0.0,1,0
1582032986122,3252548,0.0,1,0
1582032986223,3252105,0.0,1,0
1582032986322,3252031,0.0,1,0
1582032986422,3252509,0.0,1,0
1582032986523,3253357,0.0,1,0
1582032986622,3254476,0.0,1,0
1582032986722,3255071,0.0,1,0
1582032986823,3255842,0.0,1,0
1582032986922,3256848,0.0,1,0
1582032987023,3257930,0.0,1,0
1582032987123,3259054,0.0,1,0
1582032987222,3260278,0.0,1,0
1582032987322,3261179,0.0,1,0
1582032987423,3261815,0.0,1,0
1582032987523,3262313,0.0,1,0
1582032987623,3263091,0.0,1,0
1582032987724,3263821,0.0,1,0
1582032987823,3264503,0.0,1,0
1582032987923,3265435,0.0,1,0
1582032988025,3266151,0.0,1,0
1582032988135,3266526,0.0,1,0
1582032988224,3266881,0.0,1,0
1582032988335,3267087,0.0,1,0
1582032988434,3267281,0.0,1,0
1582032988534,3267574,0.0,1,0
1582032988635,3267964,0.0,1,0
1582032988734,3267533,0.0,1,0
1582032988834,3266973,0.0,1,0
1582032988935,3266737,0.0,1,0
1582032989034,3266428,0.0,1,0
1582032989135,3266415,0.0,1,0
1582032989235,3266690,0.0,1,0
1582032989334,3267101,0.0,1,0
1582032989434,3267357,0.0,1,0
1582032989535,3267308,0.0,1,0
1582032989634,3267878,0.0,1,0
1582032989734,3268586,0.0,1,0
1582032989835,3269183,0.0,1,0
1582032989934,3270141,0.0,1,0
1582032990034,3271005,0.0,1,0
1582032990135,3271026,0.0,1,0
1582032990235,3271070,0.0,1,0
1582032990335,3271440,0.0,1,0
1582032990435,3272091,0.0,1,0
1582032990535,3272799,0.0,1,0
1582032990635,3273658,0.0,1,0
1582032990735,3273724,0.0,1,0
1582032990835,3273186,0.0,1,0
1582032990935,3272666,0.0,1,0
1582032991036,3272171,0.0,1,0
1582032991125,3272024,0.0,1,0
1582032991225,3272058,0.0,1,0
1582032991326,3272583,0.0,1,0
1582032991425,3272259,0.0,1,0
1582032991525,3271668,0.0,1,0
1582032991626,3271148,0.0,1,0
1582032991726,3271276,0.0,1,0
1582032991825,3271246,0.0,1,0
1582032991926,3271683,0.0,1,0
1582032992026,3272021,0.0,1,0
1582032992126,3271179,0.0,1,0
1582032992226,3270327,0.0,1,0
1582032992328,3270184,0.0,1,0
1582032992426,3270388,0.0,1,0
1582032992527,3270491,0.0,1,0
1582032992626,3271141,0.0,1,0
1582032992736,3271238,0.0,1,0
1582032992837,3270229,0.0,1,0
1582032992936,3269380,0.0,1,0
1582032993039,3268926,0.0,1,0
1582032993137,3268866,0.0,1,0
1582032993237,3269163,0.0,1,0
1582032993337,3269928,0.0,1,0
1582032993437,3270179,0.0,1,0
1582032993537,3269074,0.0,1,0
1582032993637,3267844,0.0,1,0
1582032993738,3267057,0.0,1,0
1582032993838,3266355,0.0,1,0
1582032993937,3266054,0.0,1,0
1582032994038,3266148,0.0,1,0
1582032994137,3266451,0.0,1,0
1582032994237,3266360,0.0,1,0
1582032994338,3264810,0.0,1,0
1582032994438,3263436,0.0,1,0
1582032994538,3262508,0.0,1,0
1582032994639,3261974,0.0,1,0
1582032994738,3262076,0.0,1,0
1582032994838,3262521,0.0,1,0
1582032994938,3262597,0.0,1,0
1582032995038,3261047,0.0,1,0
1582032995139,3259535,0.0,1,0
1582032995239,3259036,0.0,1,0
1582032995338,3258519,0.0,1,0
1582032995438,3258811,0.0,1,0
1582032995539,3259297,0.0,1,0
1582032995640,3259939,0.0,1,0
1582032995738,3258710,0.0,1,0
1582032995839,3257187,0.0,1,0
1582032995939,3256269,0.0,1,0
1582032996040,3255969,0.0,1,0
1582032996129,3255870,0.0,1,0
1582032996228,3256203,0.0,1,0
1582032996329,3257232,0.0,1,0
1582032996429,3257105,0.0,1,0
1582032996529,3255115,0.0,1,0
1582032996629,3253764,0.0,1,0
1582032996729,3253150,0.0,1,0
1582032996829,3252796,0.0,1,0
1582032996929,3253135,0.0,1,0
1582032997030,3253778,0.0,1,0
1582032997129,3254460,0.0,1,0
1582032997229,3252638,0.0,1,0
1582032997330,3250436,0.0,1,0
1582032997429,3249037,0.0,1,0
1582032997529,3247981,0.0,1,0
1582032997630,3247543,0.0,1,0
1582032997740,3247433,0.0,1,0
1582032997840,3247691,0.0,1,0
1582032997940,3246604,0.0,1,0
1582032998040,3243735,0.0,1,0
1582032998140,3241749,0.0,1,0
1582032998241,3240497,0.0,1,0
1582032998340,3239606,0.0,1,0
1582032998440,3239541,0.0,1,0
1582032998541,3239918,0.0,1,0
1582032998640,3239832,0.0,1,0
1582032998740,3237789,0.0,1,0
1582032998841,3236818,0.0,1,0
1582032998941,3236641,0.0,1,0
1582032999041,3236523,0.0,1,0
1582032999141,3236956,0.0,1,0
1582032999240,3238029,0.0,1,0
1582032999341,3236799,0.0,1,0
1582032999441,3235272,0.0,1,0
1582032999541,3235259,0.0,1,0
1582032999641,3235159,0.0,1,0
1582032999741,3235713,0.0,1,0
1582032999841,3236644,0.0,1,0
1582032999941,3237526,0.0,1,0
1582033000042,3235868,0.0,1,0
1582033000141,3234620,0.0,1,0
1582033000241,3234142,0.0,1,0
1582033000342,3234151,0.0,1,0
1582033000442,3234601,0.0,1,0
1582033000541,3235876,0.0,1,0
1582033000642,3236855,0.0,1,0
1582033000742,3235489,0.0,1,0
1582033000842,3234178,0.0,1,0
1582033000942,3233673,0.0,1,0
1582033001042,3233745,0.0,1,0
1582033001132,3234574,0.0,1,0
1582033001233,3235861,0.0,1,0
1582033001332,3237436,0.0,1,0
1582033001442,3238955,0.0,1,0
1582033001543,3237669,0.0,1,0
1582033001642,3236487,0.0,1,0
1582033001742,3236155,0.0,1,0
1582033001843,3236100,0.0,1,0
1582033001942,3236510,0.0,1,0
1582033002042,3237500,0.0,1,0
1582033002143,3238454,0.0,1,0
1582033002243,3239321,0.0,1,0
1582033002343,3238470,0.0,1,0
1582033002443,3237114,0.0,1,0
1582033002543,3236522,0.0,1,0
1582033002643,3236156,0.0,1,0
1582033002744,3236137,0.0,1,0
1582033002843,3236723,0.0,1,0
1582033002943,3237360,0.0,1,0
1582033003044,3237827,0.0,1,0
1582033003143,3237210,0.0,1,0
1582033003243,3237074,0.0,1,0
1582033003344,3237890,0.0,1,0
1582033003443,3238528,0.0,1,0
1582033003543,3239614,0.0,1,0
1582033003644,3241184,0.0,1,0
1582033003744,3242359,0.0,1,0
1582033003844,3242598,0.0,1,0
1582033003945,3243308,0.0,1,0
1582033004044,3244331,0.0,1,0
1582033004144,3245556,0.0,1,0
1582033004244,3247123,0.0,1,0
1582033004345,3248759,0.0,1,0
1582033004444,3249530,0.0,1,0
1582033004545,3249828,0.0,1,0
1582033004634,3250430,0.0,1,0
1582033004734,3251287,0.0,1,0
1582033004835,3251993,0.0,1,0
1582033004934,3253356,0.0,1,0
1582033005035,3254451,0.0,1,0
1582033005135,3254814,0.0,1,0
1582033005234,3254517,0.0,1,0
1582033005334,3254556,0.0,1,0
1582033005435,3254961,0.0,1,0
1582033005535,3255122,0.0,1,0
1582033005635,3255851,0.0,1,0
1582033005735,3256476,0.0,1,0
1582033005835,3256267,0.0,1,0
1582033005935,3255459,0.0,1,0
1582033006035,3255097,0.0,1,0
1582033006135,3254963,0.0,1,0
1582033006235,3255001,0.0,1,0
1582033006337,3255387,0.0,1,0
1582033006435,3256168,0.0,1,0
1582033006536,3256278,0.0,1,0
1582033006636,3256666,0.0,1,0
1582033006735,3257182,0.0,1,0
1582033006835,3258126,0.0,1,0
1582033006946,3259107,0.0,1,0
1582033007038,3260501,0.0,1,0
1582033007136,3260964,0.0,1,0
1582033007237,3261062,0.0,1,0
1582033007336,3261597,0.0,1,0
1582033007436,3262055,0.0,1,0
1582033007537,3262650,0.0,1,0
1582033007636,3263424,0.0,1,0
1582033007747,3264068,0.0,1,0
1582033007837,3263740,0.0,1,0
1582033007946,3263491,0.0,1,0
1582033008047,3263317,0.0,1,0
1582033008154,3263146,0.0,1,0
1582033008237,3263536,0.0,1,0
1582033008337,3263912,0.0,1,0
1582033008437,3264311,0.0,1,0
1582033008537,3263336,0.0,1,0
1582033008637,3262256,0.0,1,0
1582033008737,3261841,0.0,1,0
1582033008837,3261365,0.0,1,0
1582033008937,3261191,0.0,1,0
1582033009038,3261378,0.0,1,0
1582033009137,3261671,0.0,1,0
1582033009237,3261224,0.0,1,0
1582033009338,3260680,0.0,1,0
1582033009437,3260554,0.0,1,0
1582033009538,3260638,0.0,1,0
1582033009638,3261002,0.0,1,0
1582033009737,3261773,0.0,1,0
1582033009837,3262801,0.0,1,0
1582033009938,3262782,0.0,1,0
1582033010048,3262843,0.0,1,0
1582033010148,3263473,0.0,1,0
1582033010249,3264120,0.0,1,0
1582033010348,3264901,0.0,1,0
1582033010448,3266066,0.0,1,0
1582033010549,3266934,0.0,1,0
1582033010648,3266815,0.0,1,0
1582033010738,3266655,0.0,1,0
1582033010839,3266941,0.0,1,0
1582033010938,3267543,0.0,1,0
1582033011039,3268322,0.0,1,0
1582033011139,3269183,0.0,1,0
1582033011238,3269897,0.0,1,0
1582033011338,3269624,0.0,1,0
1582033011439,3269373,0.0,1,0
1582033011539,3269438,0.0,1,0
1582033011639,3269574,0.0,1,0
1582033011739,3269894,0.0,1,0
1582033011839,3270230,0.0,1,0
1582033011939,3270752,0.0,1,0
1582033012040,3270209,0.0,1,0
1582033012139,3269461,0.0,1,0
1582033012239,3269151,0.0,1,0
1582033012340,3269126,0.0,1,0
1582033012439,3269113,0.0,1,0
1582033012539,3269458,0.0,1,0
1582033012640,3269722,0.0,1,0
1582033012739,3269069,0.0,1,0
1582033012850,3268406,0.0,1,0
1582033012950,3268350,0.0,1,0
1582033013050,3268336,0.0,1,0
1582033013151,3268718,0.0,1,0
1582033013251,3269371,0.0,1,0
1582033013350,3269356,0.0,1,0
1582033013450,3268738,0.0,1,0
1582033013551,3268051,0.0,1,0
1582033013650,3267979,0.0,1,0
1582033013750,3268219,0.0,1,0
1582033013851,3268730,0.0,1,0
1582033013951,3269478,0.0,1,0
1582033014050,3269418,0.0,1,0
1582033014151,3268550,0.0,1,0
1582033014251,3267822,0.0,1,0
1582033014351,3267686,0.0,1,0
1582033014451,3267737,0.0,1,0
1582033014551,3268160,0.0,1,0
1582033014651,3268917,0.0,1,0
1582033014751,3269420,0.0,1,0
1582033014851,3268602,0.0,1,0
1582033014951,3267657,0.0,1,0
1582033015052,3267193,0.0,1,0
1582033015151,3266844,0.0,1,0
1582033015251,3267043,0.0,1,0
1582033015352,3267286,0.0,1,0
1582033015451,3267654,0.0,1,0
1582033015551,3267377,0.0,1,0
1582033015652,3265943,0.0,1,0
1582033015751,3264799,0.0,1,0
1582033015842,3264441,0.0,1,0
1582033015942,3263721,0.0,1,0
1582033016042,3263823,0.0,1,0
1582033016142,3264266,0.0,1,0
1582033016244,3264486,0.0,1,0
1582033016342,3263413,0.0,1,0
1582033016442,3262127,0.0,1,0
1582033016543,3261588,0.0,1,0
1582033016642,3261294,0.0,1,0
1582033016742,3261429,0.0,1,0
1582033016843,3261972,0.0,1,0
1582033016942,3262337,0.0,1,0
1582033017043,3261034,0.0,1,0
1582033017143,3260095,0.0,1,0
1582033017242,3259662,0.0,1,0
1582033017342,3259758,0.0,1,0
1582033017443,3260020,0.0,1,0
1582033017543,3260816,0.0,1,0
1582033017643,3261832,0.0,1,0
1582033017744,3260675,0.0,1,0
1582033017843,3259410,0.0,1,0
1582033017943,3258866,0.0,1,0
1582033018043,3258633,0.0,1,0
1582033018143,3258908,0.0,1,0
1582033018253,3259574,0.0,1,0
1582033018354,3260594,0.0,1,0
1582033018454,3260481,0.0,1,0
1582033018553,3259032,0.0,1,0
1582033018654,3258047,0.0,1,0
1582033018754,3257701,0.0,1,0
1582033018854,3257752,0.0,1,0
1582033018954,3258142,0.0,1,0
1582033019054,3258813,0.0,1,0
1582033019155,3259356,0.0,1,0
1582033019255,3257845,0.0,1,0
1582033019354,3256328,0.0,1,0
1582033019454,3255451,0.0,1,0
1582033019555,3255023,0.0,1,0
1582033019654,3254924,0.0,1,0
1582033019754,3255133,0.0,1,0
1582033019855,3255449,0.0,1,0
1582033019954,3255426,0.0,1,0
1582033020055,3253718,0.0,1,0
1582033020155,3252818,0.0,1,0
1582033020255,3252181,0.0,1,0
1582033020355,3251595,0.0,1,0
1582033020455,3251707,0.0,1,0
1582033020555,3252413,0.0,1,0
1582033020655,3253182,0.0,1,0
1582033020756,3252526,0.0,1,0
1582033020855,3252123,0.0,1,0
1582033020955,3252380,0.0,1,0
1582033021056,3252981,0.0,1,0
1582033021145,3253585,0.0,1,0
1582033021245,3254747,0.0,1,0
1582033021346,3254962,0.0,1,0
1582033021445,3254397,0.0,1,0
1582033021547,3254381,0.0,1,0
1582033021648,3254699,0.0,1,0
1582033021747,3255641,0.0,1,0
1582033021847,3256589,0.0,1,0
1582033021947,3256804,0.0,1,0
1582033022047,3255934,0.0,1,0
1582033022146,3255641,0.0,1,0
1582033022247,3255498,0.0,1,0
1582033022348,3255358,0.0,1,0
1582033022456,3255753,0.0,1,0
1582033022547,3256339,0.0,1,0
1582033022646,3255237,0.0,1,0
1582033022746,3253692,0.0,1,0
1582033022847,3252881,0.0,1,0
1582033022946,3252536,0.0,1,0
1582033023049,3252669,0.0,1,0
1582033023147,3253294,0.0,1,0
1582033023247,3253497,0.0,1,0
1582033023347,3252399,0.0,1,0
1582033023447,3251628,0.0,1,0
1582033023547,3251584,0.0,1,0
1582033023647,3251937,0.0,1,0
1582033023758,3252370,0.0,1,0
1582033023860,3253002,0.0,1,0
1582033023947,3252130,0.0,1,0
1582033024058,3251270,0.0,1,0
1582033024157,3251096,0.0,1,0
1582033024257,3251360,0.0,1,0
1582033024358,3251856,0.0,1,0
1582033024458,3252714,0.0,1,0
1582033024558,3252907,0.0,1,0
1582033024658,3251810,0.0,1,0
1582033024758,3250907,0.0,1,0
1582033024858,3250417,0.0,1,0
1582033024958,3250502,0.0,1,0
1582033025058,3251283,0.0,1,0
1582033025159,3252020,0.0,1,0
1582033025259,3253180,0.0,1,0
1582033025358,3252702,0.0,1,0
1582033025458,3251707,0.0,1,0
1582033025559,3251057,0.0,1,0
1582033025658,3251198,0.0,1,0
1582033025758,3251717,0.0,1,0
1582033025859,3252523,0.0,1,0
1582033025958,3253596,0.0,1,0
1582033026060,3254745,0.0,1,0
1582033026149,3255218,0.0,1,0
1582033026248,3254203,0.0,1,0
1582033026349,3253234,0.0,1,0
1582033026449,3252862,0.0,1,0
1582033026549,3252671,0.0,1,0
1582033026649,3252744,0.0,1,0
1582033026749,3253163,0.0,1,0
1582033026849,3253360,0.0,1,0
1582033026949,3253180,0.0,1,0
1582033027050,3252124,0.0,1,0
1582033027149,3251408,0.0,1,0
1582033027249,3250885,0.0,1,0
1582033027350,3250642,0.0,1,0
1582033027449,3250845,0.0,1,0
1582033027549,3251614,0.0,1,0
1582033027650,3252450,0.0,1,0
1582033027760,3252511,0.0,1,0
1582033027849,3252683,0.0,1,0
1582033027960,3253244,0.0,1,0
1582033028061,3254128,0.0,1,0
1582033028160,3255017,0.0,1,0
1582033028261,3256198,0.0,1,0
1582033028360,3257160,0.0,1,0
1582033028460,3257343,0.0,1,0
1582033028561,3257534,0.0,1,0
1582033028660,3258101,0.0,1,0
1582033028760,3258797,0.0,1,0
1582033028861,3259784,0.0,1,0
1582033028961,3261183,0.0,1,0
1582033029061,3261646,0.0,1,0
1582033029162,3261329,0.0,1,0
1582033029261,3261466,0.0,1,0
1582033029361,3262034,0.0,1,0
1582033029461,3262470,0.0,1,0
1582033029561,3263392,0.0,1,0
1582033029661,3264174,0.0,1,0
1582033029762,3263962,0.0,1,0
1582033029861,3263308,0.0,1,0
1582033029961,3263138,0.0,1,0
1582033030062,3263056,0.0,1,0
1582033030161,3263420,0.0,1,0
1582033030261,3264226,0.0,1,0
1582033030362,3264244,0.0,1,0
1582033030462,3263565,0.0,1,0
1582033030561,3262663,0.0,1,0
1582033030662,3262281,0.0,1,0
1582033030762,3261804,0.0,1,0
1582033030862,3261533,0.0,1,0
1582033030962,3261309,0.0,1,0
1582033031062,3260217,0.0,1,0
1582033031152,3259236,0.0,1,0
1582033031253,3258739,0.0,1,0
1582033031352,3258359,0.0,1,0
1582033031452,3258046,0.0,1,0
1582033031553,3258608,0.0,1,0
1582033031652,3258726,0.0,1,0
1582033031752,3258357,0.0,1,0
1582033031853,3258518,0.0,1,0
1582033031952,3258992,0.0,1,0
1582033032052,3259335,0.0,1,0
1582033032153,3259984,0.0,1,0
1582033032252,3260168,0.0,1,0
1582033032353,3259925,0.0,1,0
1582033032464,3259847,0.0,1,0
1582033032553,3260059,0.0,1,0
1582033032663,3260595,0.0,1,0
1582033032764,3261194,0.0,1,0
1582033032863,3261944,0.0,1,0
1582033032963,3261741,0.0,1,0
1582033033064,3261608,0.0,1,0
1582033033163,3261583,0.0,1,0
1582033033263,3261953,0.0,1,0
1582033033364,3262581,0.0,1,0
1582033033463,3263485,0.0,1,0
1582033033563,3263959,0.0,1,0
1582033033665,3263580,0.0,1,0
1582033033764,3263435,0.0,1,0
1582033033864,3263785,0.0,1,0
1582033033965,3264160,0.0,1,0
1582033034064,3264854,0.0,1,0
1582033034164,3265896,0.0,1,0
1582033034264,3267197,0.0,1,0
1582033034365,3267354,0.0,1,0
1582033034464,3267210,0.0,1,0
1582033034565,3267305,0.0,1,0
1582033034664,3267766,0.0,1,0
1582033034754,3268271,0.0,1,0
1582033034855,3269145,0.0,1,0
1582033034954,3270092,0.0,1,0
1582033035055,3271133,0.0,1,0
1582033035155,3271724,0.0,1,0
1582033035254,3271744,0.0,1,0
1582033035354,3271613,0.0,1,0
1582033035455,3271568,0.0,1,0
1582033035555,3271679,0.0,1,0
1582033035655,3271852,0.0,1,0
1582033035756,3272486,0.0,1,0
1582033035855,3272935,0.0,1,0
1582033035955,3272549,0.0,1,0
1582033036055,3271929,0.0,1,0
1582033036155,3271398,0.0,1,0
1582033036255,3270899,0.0,1,0
1582033036358,3270757,0.0,1,0
1582033036455,3270589,0.0,1,0
1582033036555,3270862,0.0,1,0
1582033036656,3271019,0.0,1,0
1582033036755,3270982,0.0,1,0
1582033036855,3271047,0.0,1,0
1582033036957,3271407,0.0,1,0
1582033037057,3271674,0.0,1,0
1582033037156,3272428,0.0,1,0
1582033037257,3273038,0.0,1,0
1582033037356,3273024,0.0,1,0
1582033037456,3273166,0.0,1,0
1582033037557,3273403,0.0,1,0
1582033037656,3274090,0.0,1,0
1582033037767,3274514,0.0,1,0
1582033037867,3275155,0.0,1,0
1582033037967,3275333,0.0,1,0
1582033038067,3275020,0.0,1,0
1582033038158,3274963,0.0,1,0
1582033038257,3274882,0.0,1,0
1582033038358,3275139,0.0,1,0
1582033038457,3275595,0.0,1,0
1582033038557,3276000,0.0,1,0
1582033038657,3275629,0.0,1,0
1582033038757,3275240,0.0,1,0
1582033038857,3274980,0.0,1,0
1582033038957,3275002,0.0,1,0
1582033039058,3275418,0.0,1,0
1582033039157,3275900,0.0,1,0
1582033039257,3275408,0.0,1,0
1582033039358,3274589,0.0,1,0
1582033039457,3273948,0.0,1,0
1582033039558,3273578,0.0,1,0
1582033039658,3273367,0.0,1,0
1582033039757,3273547,0.0,1,0
1582033039857,3273614,0.0,1,0
1582033039958,3272096,0.0,1,0
1582033040058,3270512,0.0,1,0
1582033040168,3269498,0.0,1,0
1582033040269,3268514,0.0,1,0
1582033040368,3267861,0.0,1,0
1582033040468,3267672,0.0,1,0
1582033040568,3266772,0.0,1,0
1582033040668,3264686,0.0,1,0
1582033040768,3263241,0.0,1,0
1582033040859,3261968,0.0,1,0
1582033040958,3261006,0.0,1,0
1582033041059,3260439,0.0,1,0
1582033041159,3260685,0.0,1,0
1582033041258,3259308,0.0,1,0
1582033041358,3258442,0.0,1,0
1582033041459,3258516,0.0,1,0
1582033041559,3258391,0.0,1,0
1582033041659,3258757,0.0,1,0
1582033041759,3259429,0.0,1,0
1582033041859,3258477,0.0,1,0
1582033041959,3257818,0.0,1,0
1582033042059,3257774,0.0,1,0
1582033042159,3257990,0.0,1,0
1582033042259,3258370,0.0,1,0
1582033042360,3259139,0.0,1,0
1582033042459,3258183,0.0,1,0
1582033042559,3256910,0.0,1,0
1582033042660,3256329,0.0,1,0
1582033042759,3255882,0.0,1,0
1582033042870,3255830,0.0,1,0
1582033042970,3256159,0.0,1,0
1582033043070,3255386,0.0,1,0
1582033043171,3253333,0.0,1,0
1582033043271,3252131,0.0,1,0
1582033043370,3251434,0.0,1,0
1582033043470,3251046,0.0,1,0
1582033043571,3251312,0.0,1,0
1582033043670,3251222,0.0,1,0
1582033043770,3249426,0.0,1,0
1582033043871,3247524,0.0,1,0
1582033043971,3246482,0.0,1,0
1582033044070,3245756,0.0,1,0
1582033044171,3245452,0.0,1,0
1582033044271,3245622,0.0,1,0
1582033044371,3245491,0.0,1,0
1582033044471,3244212,0.0,1,0
1582033044571,3243885,0.0,1,0
1582033044671,3243696,0.0,1,0
1582033044772,3244114,0.0,1,0
1582033044871,3244635,0.0,1,0
1582033044971,3245781,0.0,1,0
1582033045072,3245640,0.0,1,0
1582033045171,3245525,0.0,1,0
1582033045271,3246288,0.0,1,0
1582033045372,3246830,0.0,1,0
1582033045471,3247475,0.0,1,0
1582033045571,3248432,0.0,1,0
1582033045672,3248721,0.0,1,0
1582033045772,3248497,0.0,1,0
1582033045872,3248528,0.0,1,0
1582033045972,3248642,0.0,1,0
1582033046072,3249111,0.0,1,0
1582033046172,3249690,0.0,1,0
1582033046273,3250460,0.0,1,0
1582033046372,3249959,0.0,1,0
1582033046472,3249152,0.0,1,0
1582033046563,3249051,0.0,1,0
1582033046662,3249271,0.0,1,0
1582033046762,3249649,0.0,1,0
1582033046863,3250377,0.0,1,0
1582033046962,3250854,0.0,1,0
1582033047063,3250245,0.0,1,0
1582033047163,3249771,0.0,1,0
1582033047262,3249578,0.0,1,0
1582033047362,3249651,0.0,1,0
1582033047464,3249770,0.0,1,0
1582033047563,3250154,0.0,1,0
1582033047663,3250346,0.0,1,0
1582033047764,3249833,0.0,1,0
1582033047863,3249975,0.0,1,0
1582033047963,3250250,0.0,1,0
1582033048063,3250538,0.0,1,0
1582033048173,3251165,0.0,1,0
1582033048273,3251909,0.0,1,0
1582033048374,3252000,0.0,1,0
1582033048474,3253025,0.0,1,0
1582033048574,3254134,0.0,1,0
1582033048674,3255344,0.0,1,0
1582033048774,3256535,0.0,1,0
1582033048874,3257363,0.0,1,0
1582033048975,3257437,0.0,1,0
1582033049074,3258037,0.0,1,0
1582033049175,3258511,0.0,1,0
1582033049275,3258920,0.0,1,0
1582033049374,3259382,0.0,1,0
1582033049474,3259412,0.0,1,0
1582033049575,3258714,0.0,1,0
1582033049675,3258499,0.0,1,0
1582033049774,3258132,0.0,1,0
1582033049875,3258259,0.0,1,0
1582033049974,3258420,0.0,1,0
1582033050074,3257612,0.0,1,0
1582033050175,3256434,0.0,1,0
1582033050275,3255354,0.0,1,0
1582033050375,3254586,0.0,1,0
1582033050475,3254077,0.0,1,0
1582033050575,3253767,0.0,1,0
1582033050675,3252833,0.0,1,0
1582033050776,3250991,0.0,1,0
1582033050875,3249434,0.0,1,0
1582033050975,3248303,0.0,1,0
1582033051068,3247668,0.0,1,0
1582033051165,3247639,0.0,1,0
1582033051265,3247740,0.0,1,0
1582033051366,3246696,0.0,1,0
1582033051465,3246086,0.0,1,0
1582033051565,3246423,0.0,1,0
1582033051666,3247028,0.0,1,0
1582033051765,3247888,0.0,1,0
1582033051866,3248604,0.0,1,0
1582033051976,3247888,0.0,1,0
1582033052066,3247393,0.0,1,0
1582033052166,3247951,0.0,1,0
1582033052267,3248203,0.0,1,0
1582033052367,3249033,0.0,1,0
1582033052466,3250090,0.0,1,0
1582033052567,3249756,0.0,1,0
1582033052676,3248567,0.0,1,0
1582033052766,3248164,0.0,1,0
1582033052867,3248214,0.0,1,0
1582033052977,3248292,0.0,1,0
1582033053079,3249121,0.0,1,0
1582033053177,3250200,0.0,1,0
1582033053277,3249579,0.0,1,0
1582033053377,3248192,0.0,1,0
1582033053478,3247396,0.0,1,0
1582033053578,3247415,0.0,1,0
1582033053677,3247573,0.0,1,0
1582033053778,3248314,0.0,1,0
1582033053878,3249190,0.0,1,0
1582033053977,3248292,0.0,1,0
1582033054078,3247174,0.0,1,0
1582033054177,3246560,0.0,1,0
1582033054278,3246362,0.0,1,0
1582033054378,3246503,0.0,1,0
1582033054478,3247020,0.0,1,0
1582033054578,3247487,0.0,1,0
1582033054680,3246601,0.0,1,0
1582033054778,3245854,0.0,1,0
1582033054878,3245474,0.0,1,0
1582033054978,3245567,0.0,1,0
1582033055078,3246138,0.0,1,0
1582033055181,3247096,0.0,1,0
1582033055280,3247106,0.0,1,0
1582033055379,3248072,0.0,1,0
1582033055479,3249146,0.0,1,0
1582033055580,3250298,0.0,1,0
1582033055679,3251490,0.0,1,0
1582033055779,3252086,0.0,1,0
1582033055879,3252048,0.0,1,0
1582033055979,3252591,0.0,1,0
1582033056069,3253196,0.0,1,0
1582033056169,3253934,0.0,1,0
1582033056268,3254817,0.0,1,0
1582033056369,3254914,0.0,1,0
1582033056469,3254210,0.0,1,0
1582033056569,3253812,0.0,1,0
1582033056669,3253848,0.0,1,0
1582033056769,3254107,0.0,1,0
1582033056869,3254858,0.0,1,0
1582033056969,3254712,0.0,1,0
1582033057070,3253728,0.0,1,0
1582033057169,3253311,0.0,1,0
1582033057270,3253334,0.0,1,0
1582033057370,3253837,0.0,1,0
1582033057469,3254645,0.0,1,0
1582033057570,3254934,0.0,1,0
1582033057680,3253963,0.0,1,0
1582033057780,3253203,0.0,1,0
1582033057880,3252828,0.0,1,0
1582033057980,3252327,0.0,1,0
1582033058080,3252342,0.0,1,0
1582033058180,3252572,0.0,1,0
1582033058281,3251734,0.0,1,0
1582033058380,3250753,0.0,1,0
1582033058480,3250018,0.0,1,0
1582033058581,3249740,0.0,1,0
1582033058680,3249600,0.0,1,0
1582033058780,3249992,0.0,1,0
1582033058881,3250564,0.0,1,0
1582033058981,3250456,0.0,1,0
1582033059081,3251105,0.0,1,0
1582033059181,3251910,0.0,1,0
1582033059281,3252669,0.0,1,0
1582033059381,3253739,0.0,1,0
1582033059481,3254374,0.0,1,0
1582033059581,3254882,0.0,1,0
1582033059681,3255712,0.0,1,0
1582033059782,3256769,0.0,1,0
1582033059881,3257930,0.0,1,0
1582033059982,3259021,0.0,1,0
1582033060082,3259000,0.0,1,0
1582033060181,3258948,0.0,1,0
1582033060281,3259205,0.0,1,0
1582033060382,3259436,0.0,1,0
1582033060481,3259763,0.0,1,0
1582033060582,3260150,0.0,1,0
1582033060682,3259317,0.0,1,0
1582033060782,3258435,0.0,1,0
1582033060882,3258080,0.0,1,0
1582033060982,3257878,0.0,1,0
1582033061072,3257810,0.0,1,0
1582033061172,3257827,0.0,1,0
1582033061273,3256401,0.0,1,0
1582033061372,3255053,0.0,1,0
1582033061472,3254637,0.0,1,0
1582033061573,3254194,0.0,1,0
1582033061672,3254096,0.0,1,0
1582033061772,3254259,0.0,1,0
1582033061873,3253238,0.0,1,0
1582033061972,3251633,0.0,1,0
1582033062072,3250463,0.0,1,0
1582033062173,3249741,0.0,1,0
1582033062273,3249352,0.0,1,0
1582033062373,3248937,0.0,1,0
1582033062473,3248882,0.0,1,0
1582033062573,3247495,0.0,1,0
1582033062673,3246124,0.0,1,0
1582033062773,3245034,0.0,1,0
1582033062873,3244244,0.0,1,0
1582033062973,3243990,0.0,1,0
1582033063074,3244207,0.0,1,0
1582033063173,3244603,0.0,1,0
1582033063273,3244144,0.0,1,0
1582033063374,3244484,0.0,1,0
1582033063473,3245200,0.0,1,0
1582033063573,3246072,0.0,1,0
1582033063674,3247070,0.0,1,0
1582033063784,3247750,0.0,1,0
1582033063884,3247458,0.0,1,0
1582033063984,3247989,0.0,1,0
1582033064084,3248679,0.0,1,0
1582033064184,3249062,0.0,1,0
1582033064285,3249791,0.0,1,0
1582033064385,3249765,0.0,1,0
1582033064484,3248964,0.0,1,0
1582033064585,3248571,0.0,1,0
1582033064684,3248495,0.0,1,0
1582033064784,3248833,0.0,1,0
1582033064875,3249278,0.0,1,0
1582033064974,3249215,0.0,1,0
1582033065075,3247757,0.0,1,0
1582033065175,3247011,0.0,1,0
1582033065274,3246675,0.0,1,0
1582033065374,3246722,0.0,1,0
1582033065475,3247201,0.0,1,0
1582033065575,3247869,0.0,1,0
1582033065675,3246922,0.0,1,0
1582033065775,3245595,0.0,1,0
1582033065875,3244936,0.0,1,0
1582033065975,3244703,0.0,1,0
1582033066076,3244665,0.0,1,0
1582033066175,3245144,0.0,1,0
1582033066275,3245416,0.0,1,0
1582033066376,3244234,0.0,1,0
1582033066475,3242908,0.0,1,0
1582033066576,3241982,0.0,1,0
1582033066677,3241586,0.0,1,0
1582033066775,3241491,0.0,1,0
1582033066876,3241910,0.0,1,0
1582033066977,3242608,0.0,1,0
1582033067077,3242508,0.0,1,0
1582033067176,3242735,0.0,1,0
1582033067277,3243614,0.0,1,0
1582033067376,3244448,0.0,1,0
1582033067476,3245205,0.0,1,0
1582033067577,3246473,0.0,1,0
1582033067676,3246878,0.0,1,0
1582033067787,3247195,0.0,1,0
1582033067877,3248001,0.0,1,0
1582033067987,3249045,0.0,1,0
1582033068087,3250044,0.0,1,0
1582033068177,3251337,0.0,1,0
1582033068277,3251271,0.0,1,0
1582033068378,3251188,0.0,1,0
1582033068477,3251772,0.0,1,0
1582033068577,3252126,0.0,1,0
1582033068677,3253050,0.0,1,0
1582033068777,3254218,0.0,1,0
1582033068877,3253809,0.0,1,0
1582033068977,3253215,0.0,1,0
1582033069078,3253203,0.0,1,0
1582033069177,3253313,0.0,1,0
1582033069277,3254050,0.0,1,0
1582033069378,3254900,0.0,1,0
1582033069477,3255081,0.0,1,0
1582033069578,3254171,0.0,1,0
1582033069688,3253564,0.0,1,0
1582033069788,3253211,0.0,1,0
1582033069888,3253249,0.0,1,0
1582033069988,3253642,0.0,1,0
1582033070088,3254170,0.0,1,0
1582033070188,3253484,0.0,1,0
1582033070289,3252095,0.0,1,0
1582033070388,3251169,0.0,1,0
1582033070488,3250692,0.0,1,0
1582033070589,3250447,0.0,1,0
1582033070678,3250772,0.0,1,0
1582033070778,3251083,0.0,1,0
1582033070879,3250582,0.0,1,0
1582033070978,3248838,0.0,1,0
1582033071079,3247712,0.0,1,0
1582033071179,3246774,0.0,1,0
1582033071278,3246040,0.0,1,0
1582033071378,3245937,0.0,1,0
1582033071479,3245965,0.0,1,0
1582033071579,3244878,0.0,1,0
1582033071679,3243594,0.0,1,0
1582033071779,3243020,0.0,1,0
1582033071879,3242710,0.0,1,0
1582033071979,3242629,0.0,1,0
1582033072080,3243240,0.0,1,0
1582033072179,3243473,0.0,1,0
1582033072279,3243154,0.0,1,0
1582033072380,3243606,0.0,1,0
1582033072479,3244306,0.0,1,0
1582033072579,3244840,0.0,1,0
1582033072680,3245856,0.0,1,0
1582033072779,3246073,0.0,1,0
1582033072890,3245477,0.0,1,0
1582033072990,3245212,0.0,1,0
1582033073090,3245581,0.0,1,0
1582033073191,3245766,0.0,1,0
1582033073291,3246295,0.0,1,0
1582033073390,3246248,0.0,1,0
1582033073490,3245219,0.0,1,0
1582033073591,3244649,0.0,1,0
1582033073690,3244376,0.0,1,0
1582033073790,3244399,0.0,1,0
1582033073891,3244763,0.0,1,0
1582033073991,3244595,0.0,1,0
1582033074091,3243258,0.0,1,0
1582033074191,3242320,0.0,1,0
1582033074291,3241897,0.0,1,0
1582033074391,3241964,0.0,1,0
1582033074492,3242218,0.0,1,0
1582033074591,3242328,0.0,1,0
1582033074691,3240950,0.0,1,0
1582033074792,3239578,0.0,1,0
1582033074891,3239489,0.0,1,0
1582033074991,3239161,0.0,1,0
1582033075092,3239086,0.0,1,0
1582033075191,3239582,0.0,1,0
1582033075291,3239100,0.0,1,0
1582033075392,3237596,0.0,1,0
1582033075491,3236507,0.0,1,0
1582033075592,3235793,0.0,1,0
1582033075692,3235431,0.0,1,0
1582033075796,3235396,0.0,1,0
1582033075882,3235700,0.0,1,0
1582033075982,3234609,0.0,1,0
1582033076082,3234261,0.0,1,0
1582033076182,3234271,0.0,1,0
1582033076283,3234585,0.0,1,0
1582033076382,3235131,0.0,1,0
1582033076482,3235994,0.0,1,0
1582033076583,3235876,0.0,1,0
1582033076682,3236397,0.0,1,0
1582033076782,3237189,0.0,1,0
1582033076883,3238213,0.0,1,0
1582033076982,3239600,0.0,1,0
1582033077083,3240691,0.0,1,0
1582033077183,3240690,0.0,1,0
1582033077282,3240758,0.0,1,0
1582033077382,3241283,0.0,1,0
1582033077483,3241866,0.0,1,0
1582033077583,3242692,0.0,1,0
1582033077683,3243246,0.0,1,0
1582033077784,3242980,0.0,1,0
1582033077883,3243250,0.0,1,0
1582033077983,3243499,0.0,1,0
1582033078084,3244244,0.0,1,0
1582033078183,3244926,0.0,1,0
1582033078293,3245945,0.0,1,0
1582033078394,3246020,0.0,1,0
1582033078494,3245841,0.0,1,0
1582033078594,3246189,0.0,1,0
1582033078694,3246594,0.0,1,0
1582033078794,3247601,0.0,1,0
1582033078894,3248717,0.0,1,0
1582033078995,3249973,0.0,1,0
1582033079094,3250905,0.0,1,0
1582033079195,3250862,0.0,1,0
1582033079295,3251207,0.0,1,0
1582033079394,3251816,0.0,1,0
1582033079494,3252460,0.0,1,0
1582033079595,3253310,0.0,1,0
1582033079695,3254378,0.0,1,0
1582033079794,3255678,0.0,1,0
1582033079895,3255927,0.0,1,0
1582033079994,3256024,0.0,1,0
1582033080095,3256391,0.0,1,0
1582033080195,3257041,0.0,1,0
1582033080295,3257766,0.0,1,0
1582033080395,3258737,0.0,1,0
1582033080496,3259764,0.0,1,0
1582033080595,3260670,0.0,1,0
1582033080695,3260654,0.0,1,0
1582033080796,3261146,0.0,1,0
1582033080895,3261483,0.0,1,0
1582033080995,3262173,0.0,1,0
1582033081088,3263056,0.0,1,0
1582033081186,3263975,0.0,1,0
1582033081285,3265107,0.0,1,0
1582033081386,3265500,0.0,1,0
1582033081485,3265691,0.0,1,0
1582033081586,3266069,0.0,1,0
1582033081686,3266608,0.0,1,0
1582033081785,3267189,0.0,1,0
1582033081886,3268191,0.0,1,0
1582033081986,3269052,0.0,1,0
1582033082086,3270148,0.0,1,0
1582033082186,3270306,0.0,1,0
1582033082287,3270589,0.0,1,0
1582033082398,3271127,0.0,1,0
1582033082486,3271650,0.0,1,0
1582033082587,3272509,0.0,1,0
1582033082686,3273341,0.0,1,0
1582033082786,3274320,0.0,1,0
1582033082887,3274771,0.0,1,0
1582033082986,3274899,0.0,1,0
1582033083089,3275341,0.0,1,0
1582033083187,3275795,0.0,1,0
1582033083297,3276375,0.0,1,0
1582033083397,3277024,0.0,1,0
1582033083498,3277942,0.0,1,0
1582033083597,3278284,0.0,1,0
1582033083697,3278205,0.0,1,0
1582033083798,3278137,0.0,1,0
1582033083898,3278602,0.0,1,0
1582033083997,3278822,0.0,1,0
1582033084098,3279090,0.0,1,0
1582033084197,3279732,0.0,1,0
1582033084298,3279708,0.0,1,0
1582033084399,3278955,0.0,1,0
1582033084488,3278836,0.0,1,0
1582033084598,3278684,0.0,1,0
1582033084698,3278508,0.0,1,0
1582033084798,3278520,0.0,1,0
1582033084898,3278675,0.0,1,0
1582033084998,3277679,0.0,1,0
1582033085098,3276656,0.0,1,0
1582033085199,3276217,0.0,1,0
1582033085299,3275708,0.0,1,0
1582033085398,3275280,0.0,1,0
1582033085498,3275172,0.0,1,0
1582033085599,3273733,0.0,1,0
1582033085698,3272782,0.0,1,0
1582033085798,3272480,0.0,1,0
1582033085899,3271825,0.0,1,0
1582033085998,3271640,0.0,1,0
1582033086088,3271590,0.0,1,0
1582033086189,3270022,0.0,1,0
1582033086288,3268645,0.0,1,0
1582033086389,3268014,0.0,1,0
1582033086489,3267437,0.0,1,0
1582033086589,3266975,0.0,1,0
1582033086689,3266340,0.0,1,0
1582033086789,3264306,0.0,1,0
1582033086889,3262715,0.0,1,0
1582033086989,3261980,0.0,1,0
1582033087090,3261214,0.0,1,0
1582033087189,3260884,0.0,1,0
1582033087289,3259376,0.0,1,0
1582033087390,3256740,0.0,1,0
1582033087489,3255310,0.0,1,0
1582033087590,3254170,0.0,1,0
1582033087690,3253558,0.0,1,0
1582033087800,3253576,0.0,1,0
1582033087900,3251434,0.0,1,0
1582033088000,3248506,0.0,1,0
1582033088101,3247088,0.0,1,0
1582033088200,3245821,0.0,1,0
1582033088301,3244921,0.0,1,0
1582033088400,3244960,0.0,1,0
1582033088502,3242396,0.0,1,0
1582033088602,3238414,0.0,1,0
1582033088702,3237144,0.0,1,0
1582033088801,3236286,0.0,1,0
1582033088902,3235968,0.0,1,0
1582033089002,3235347,0.0,1,0
1582033089102,3232348,0.0,1,0
1582033089202,3230776,0.0,1,0
1582033089301,3230214,0.0,1,0
1582033089401,3229957,0.0,1,0
1582033089501,3230602,0.0,1,0
1582033089601,3230568,0.0,1,0
1582033089701,3228046,0.0,1,0
1582033089802,3226479,0.0,1,0
1582033089901,3226202,0.0,1,0
1582033090001,3226264,0.0,1,0
1582033090102,3227332,0.0,1,0
1582033090201,3228022,0.0,1,0
1582033090301,3226281,0.0,1,0
1582033090402,3225060,0.0,1,0
1582033090502,3224981,0.0,1,0
1582033090602,3225197,0.0,1,0
1582033090703,3226160,0.0,1,0
1582033090802,3227573,0.0,1,0
1582033090902,3227624,0.0,1,0
1582033091002,3225769,0.0,1,0
1582033091092,3224793,0.0,1,0
1582033091192,3224947,0.0,1,0
1582033091293,3225436,0.0,1,0
1582033091392,3226512,0.0,1,0
1582033091492,3227709,0.0,1,0
1582033091593,3228040,0.0,1,0
1582033091692,3226444,0.0,1,0
1582033091792,3225848,0.0,1,0
1582033091893,3226144,0.0,1,0
1582033091992,3226631,0.0,1,0
1582033092092,3227589,0.0,1,0
1582033092203,3229078,0.0,1,0
1582033092303,3228673,0.0,1,0
1582033092403,3228381,0.0,1,0
1582033092503,3229323,0.0,1,0
1582033092603,3230343,0.0,1,0
1582033092703,3231497,0.0,1,0
1582033092804,3233001,0.0,1,0
1582033092903,3233122,0.0,1,0
1582033093003,3232951,0.0,1,0
1582033093106,3233755,0.0,1,0
1582033093203,3234582,0.0,1,0
1582033093303,3235953,0.0,1,0
1582033093404,3237426,0.0,1,0
1582033093503,3237215,0.0,1,0
1582033093604,3237334,0.0,1,0
1582033093704,3238127,0.0,1,0
1582033093804,3238952,0.0,1,0
1582033093904,3240335,0.0,1,0
1582033094005,3241732,0.0,1,0
1582033094104,3241238,0.0,1,0
1582033094204,3241372,0.0,1,0
1582033094305,3242136,0.0,1,0
1582033094405,3243082,0.0,1,0
1582033094504,3244341,0.0,1,0
1582033094605,3245407,0.0,1,0
1582033094704,3245086,0.0,1,0
1582033094804,3245037,0.0,1,0
1582033094905,3245799,0.0,1,0
1582033094994,3246619,0.0,1,0
1582033095095,3247900,0.0,1,0
1582033095195,3249009,0.0,1,0
1582033095294,3248800,0.0,1,0
1582033095395,3248373,0.0,1,0
1582033095495,3248850,0.0,1,0
1582033095595,3249121,0.0,1,0
1582033095695,3249734,0.0,1,0
1582033095795,3249832,0.0,1,0
1582033095895,3249314,0.0,1,0
1582033095995,3249684,0.0,1,0
1582033096096,3250365,0.0,1,0
1582033096195,3250244,0.0,1,0
1582033096295,3250497,0.0,1,0
1582033096396,3250461,0.0,1,0
1582033096495,3249080,0.0,1,0
1582033096596,3248522,0.0,1,0
1582033096696,3248406,0.0,1,0
1582033096796,3248585,0.0,1,0
1582033096896,3249313,0.0,1,0
1582033096996,3248665,0.0,1,0
1582033097097,3247463,0.0,1,0
1582033097196,3247429,0.0,1,0
1582033097297,3247486,0.0,1,0
1582033097396,3248000,0.0,1,0
1582033097496,3248656,0.0,1,0
1582033097607,3247762,0.0,1,0
1582033097706,3246443,0.0,1,0
1582033097807,3246542,0.0,1,0
1582033097907,3246558,0.0,1,0
1582033098007,3247053,0.0,1,0
1582033098106,3247549,0.0,1,0
1582033098198,3245983,0.0,1,0
1582033098297,3244647,0.0,1,0
1582033098397,3244141,0.0,1,0
1582033098497,3243982,0.0,1,0
1582033098597,3244254,0.0,1,0
1582033098697,3244680,0.0,1,0
1582033098797,3242677,0.0,1,0
1582033098897,3241180,0.0,1,0
1582033098997,3240496,0.0,1,0
1582033099098,3240021,0.0,1,0
1582033099197,3240100,0.0,1,0
1582033099297,3240739,0.0,1,0
1582033099398,3239397,0.0,1,0
1582033099497,3237858,0.0,1,0
1582033099598,3237694,0.0,1,0
1582033099698,3237314,0.0,1,0
1582033099797,3237382,0.0,1,0
1582033099898,3237962,0.0,1,0
1582033099998,3237200,0.0,1,0
1582033100098,3235971,0.0,1,0
1582033100198,3236287,0.0,1,0
1582033100309,3236772,0.0,1,0
1582033100408,3237683,0.0,1,0
1582033100508,3238373,0.0,1,0
1582033100609,3236908,0.0,1,0
1582033100708,3236431,0.0,1,0
1582033100798,3236661,0.0,1,0
1582033100899,3236922,0.0,1,0
1582033100998,3237663,0.0,1,0
1582033101099,3236716,0.0,1,0
1582033101199,3234819,0.0,1,0
1582033101298,3234053,0.0,1,0
1582033101399,3233629,0.0,1,0
1582033101499,3233859,0.0,1,0
1582033101599,3234109,0.0,1,0
1582033101699,3231594,0.0,1,0
1582033101799,3229688,0.0,1,0
1582033101899,3228996,0.0,1,0
1582033101999,3228818,0.0,1,0
1582033102100,3229189,0.0,1,0
1582033102199,3228777,0.0,1,0
1582033102299,3225158,0.0,1,0
1582033102400,3222853,0.0,1,0
1582033102500,3221989,0.0,1,0
1582033102599,3221438,0.0,1,0
1582033102710,3221843,0.0,1,0
1582033102810,3222760,0.0,1,0
1582033102910,3221367,0.0,1,0
1582033103010,3217713,0.0,1,0
1582033103110,3215824,0.0,1,0
1582033103211,3215125,0.0,1,0
1582033103311,3215207,0.0,1,0
1582033103410,3215730,0.0,1,0
1582033103510,3217053,0.0,1,0
1582033103611,3217319,0.0,1,0
1582033103710,3214443,0.0,1,0
1582033103810,3213317,0.0,1,0
1582033103911,3213505,0.0,1,0
1582033104011,3213845,0.0,1,0
1582033104111,3215159,0.0,1,0
1582033104211,3216842,0.0,1,0
1582033104311,3216543,0.0,1,0
1582033104411,3215474,0.0,1,0
1582033104512,3216177,0.0,1,0
1582033104611,3217031,0.0,1,0
1582033104711,3218219,0.0,1,0
1582033104812,3220137,0.0,1,0
1582033104911,3220517,0.0,1,0
1582033105011,3219457,0.0,1,0
1582033105113,3220156,0.0,1,0
1582033105211,3221167,0.0,1,0
1582033105311,3222545,0.0,1,0
1582033105412,3224520,0.0,1,0
1582033105511,3225620,0.0,1,0
1582033105612,3224407,0.0,1,0
1582033105712,3224357,0.0,1,0
1582033105812,3225178,0.0,1,0
1582033105912,3226410,0.0,1,0
1582033106012,3227951,0.0,1,0
1582033106102,3229669,0.0,1,0
1582033106202,3228861,0.0,1,0
1582033106302,3228566,0.0,1,0
1582033106402,3229619,0.0,1,0
1582033106502,3230705,0.0,1,0
1582033106603,3231917,0.0,1,0
1582033106702,3233459,0.0,1,0
1582033106802,3234634,0.0,1,0
1582033106903,3233969,0.0,1,0
1582033107002,3234189,0.0,1,0
1582033107103,3234832,0.0,1,0
1582033107203,3235622,0.0,1,0
1582033107302,3236938,0.0,1,0
1582033107403,3238367,0.0,1,0
1582033107503,3238248,0.0,1,0
1582033107603,3238153,0.0,1,0
1582033107703,3238915,0.0,1,0
1582033107804,3240085,0.0,1,0
1582033107903,3241359,0.0,1,0
1582033108003,3242644,0.0,1,0
1582033108104,3244431,0.0,1,0
1582033108213,3246177,0.0,1,0
1582033108313,3247175,0.0,1,0
1582033108414,3247087,0.0,1,0
1582033108514,3247747,0.0,1,0
1582033108614,3248578,0.0,1,0
1582033108714,3249764,0.0,1,0
1582033108814,3250778,0.0,1,0
1582033108914,3252397,0.0,1,0
1582033109015,3253726,0.0,1,0
1582033109114,3253920,0.0,1,0
1582033109215,3254191,0.0,1,0
1582033109315,3255115,0.0,1,0
1582033109414,3255791,0.0,1,0
1582033109514,3256908,0.0,1,0
1582033109615,3258035,0.0,1,0
1582033109715,3259075,0.0,1,0
1582033109814,3259332,0.0,1,0
1582033109915,3259410,0.0,1,0
1582033110014,3259856,0.0,1,0
1582033110115,3260511,0.0,1,0
1582033110215,3261201,0.0,1,0
1582033110315,3262164,0.0,1,0
1582033110415,3263054,0.0,1,0
1582033110516,3263200,0.0,1,0
1582033110615,3262729,0.0,1,0
1582033110715,3262570,0.0,1,0
1582033110816,3262734,0.0,1,0
1582033110915,3262941,0.0,1,0
1582033111015,3263383,0.0,1,0
1582033111108,3264186,0.0,1,0
1582033111205,3263662,0.0,1,0
1582033111305,3263363,0.0,1,0
1582033111406,3263434,0.0,1,0
1582033111505,3263476,0.0,1,0
1582033111605,3263867,0.0,1,0
1582033111706,3264578,0.0,1,0
1582033111805,3264609,0.0,1,0
1582033111906,3263618,0.0,1,0
1582033112006,3263144,0.0,1,0
1582033112106,3263198,0.0,1,0
1582033112206,3263087,0.0,1,0
1582033112307,3263376,0.0,1,0
1582033112408,3263946,0.0,1,0
1582033112516,3263374,0.0,1,0
1582033112607,3262104,0.0,1,0
1582033112706,3261427,0.0,1,0
1582033112806,3260973,0.0,1,0
1582033112907,3260898,0.0,1,0
1582033113017,3261312,0.0,1,0
1582033113118,3262050,0.0,1,0
1582033113217,3260796,0.0,1,0
1582033113317,3258917,0.0,1,0
1582033113417,3257782,0.0,1,0
1582033113518,3256886,0.0,1,0
1582033113617,3256721,0.0,1,0
1582033113717,3256905,0.0,1,0
1582033113818,3257459,0.0,1,0
1582033113918,3255958,0.0,1,0
1582033114018,3253703,0.0,1,0
1582033114118,3252574,0.0,1,0
1582033114218,3252181,0.0,1,0
1582033114318,3251823,0.0,1,0
1582033114418,3252443,0.0,1,0
1582033114518,3253088,0.0,1,0
1582033114618,3251923,0.0,1,0
1582033114718,3249816,0.0,1,0
1582033114818,3248994,0.0,1,0
1582033114918,3248326,0.0,1,0
1582033115018,3248105,0.0,1,0
1582033115118,3248489,0.0,1,0
1582033115219,3249080,0.0,1,0
1582033115319,3247473,0.0,1,0
1582033115418,3245436,0.0,1,0
1582033115518,3245361,0.0,1,0
1582033115619,3245098,0.0,1,0
1582033115718,3245373,0.0,1,0
1582033115818,3246138,0.0,1,0
1582033115919,3246178,0.0,1,0
1582033116018,3244444,0.0,1,0
1582033116108,3244094,0.0,1,0
1582033116209,3244206,0.0,1,0
1582033116309,3244533,0.0,1,0
1582033116409,3245370,0.0,1,0
1582033116509,3245559,0.0,1,0
1582033116609,3243915,0.0,1,0
1582033116709,3243441,0.0,1,0
1582033116809,3243675,0.0,1,0
1582033116909,3243980,0.0,1,0
1582033117009,3244827,0.0,1,0
1582033117110,3245264,0.0,1,0
1582033117210,3243491,0.0,1,0
1582033117310,3242875,0.0,1,0
1582033117410,3243135,0.0,1,0
1582033117509,3243554,0.0,1,0
1582033117609,3244473,0.0,1,0
1582033117710,3244422,0.0,1,0
1582033117820,3242867,0.0,1,0
1582033117920,3242463,0.0,1,0
1582033118020,3242545,0.0,1,0
1582033118120,3242737,0.0,1,0
1582033118220,3244003,0.0,1,0
1582033118321,3243563,0.0,1,0
1582033118420,3242142,0.0,1,0
1582033118520,3241840,0.0,1,0
1582033118621,3241860,0.0,1,0
1582033118720,3242434,0.0,1,0
1582033118820,3243587,0.0,1,0
1582033118921,3244358,0.0,1,0
1582033119021,3243041,0.0,1,0
1582033119121,3242377,0.0,1,0
1582033119221,3242503,0.0,1,0
1582033119321,3242840,0.0,1,0
1582033119421,3243732,0.0,1,0
1582033119521,3244744,0.0,1,0
1582033119621,3244527,0.0,1,0
1582033119721,3243257,0.0,1,0
1582033119822,3242917,0.0,1,0
1582033119921,3242943,0.0,1,0
1582033120021,3243486,0.0,1,0
1582033120122,3244229,0.0,1,0
1582033120221,3244981,0.0,1,0
1582033120321,3244262,0.0,1,0
1582033120422,3243578,0.0,1,0
1582033120522,3243867,0.0,1,0
1582033120622,3244027,0.0,1,0
1582033120722,3244473,0.0,1,0
1582033120822,3245364,0.0,1,0
1582033120922,3244990,0.0,1,0
1582033121022,3244430,0.0,1,0
1582033121112,3244891,0.0,1,0
1582033121212,3245374,0.0,1,0
1582033121313,3246312,0.0,1,0
1582033121412,3247314,0.0,1,0
1582033121512,3247666,0.0,1,0
1582033121613,3246929,0.0,1,0
1582033121712,3247006,0.0,1,0
1582033121814,3247517,0.0,1,0
1582033121914,3248665,0.0,1,0
1582033122024,3249782,0.0,1,0
1582033122123,3249695,0.0,1,0
1582033122224,3249171,0.0,1,0
1582033122324,3249426,0.0,1,0
1582033122424,3249919,0.0,1,0
1582033122524,3250607,0.0,1,0
1582033122623,3251781,0.0,1,0
1582033122723,3252820,0.0,1,0
1582033122824,3252633,0.0,1,0
1582033122923,3252406,0.0,1,0
1582033123023,3252688,0.0,1,0
1582033123124,3253307,0.0,1,0
1582033123223,3254162,0.0,1,0
1582033123323,3255301,0.0,1,0
1582033123424,3256773,0.0,1,0
1582033123523,3258066,0.0,1,0
1582033123624,3257748,0.0,1,0
1582033123724,3257931,0.0,1,0
1582033123824,3258386,0.0,1,0
1582033123924,3258865,0.0,1,0
1582033124024,3259927,0.0,1,0
1582033124124,3261005,0.0,1,0
1582033124224,3262175,0.0,1,0
1582033124325,3263082,0.0,1,0
1582033124414,3262835,0.0,1,0
1582033124514,3263152,0.0,1,0
1582033124615,3263591,0.0,1,0
1582033124714,3264077,0.0,1,0
1582033124814,3265002,0.0,1,0
1582033124915,3265823,0.0,1,0
1582033125014,3265885,0.0,1,0
1582033125115,3265383,0.0,1,0
1582033125215,3265439,0.0,1,0
1582033125315,3265812,0.0,1,0
1582033125415,3266160,0.0,1,0
1582033125515,3266697,0.0,1,0
1582033125615,3266800,0.0,1,0
1582033125715,3266221,0.0,1,0
1582033125815,3266501,0.0,1,0
1582033125915,3266831,0.0,1,0
1582033126015,3267303,0.0,1,0
1582033126116,3268100,0.0,1,0
1582033126215,3267680,0.0,1,0
1582033126315,3267383,0.0,1,0
1582033126416,3267354,0.0,1,0
1582033126515,3267698,0.0,1,0
1582033126616,3268012,0.0,1,0
1582033126716,3268516,0.0,1,0
1582033126816,3267584,0.0,1,0
1582033126916,3267212,0.0,1,0
1582033127016,3267222,0.0,1,0
1582033127118,3267247,0.0,1,0
1582033127217,3267721,0.0,1,0
1582033127317,3267357,0.0,1,0
1582033127416,3266266,0.0,1,0
1582033127516,3266006,0.0,1,0
1582033127627,3265980,0.0,1,0
1582033127727,3266089,0.0,1,0
1582033127828,3266794,0.0,1,0
1582033127927,3266005,0.0,1,0
1582033128027,3264778,0.0,1,0
1582033128127,3264440,0.0,1,0
1582033128218,3264214,0.0,1,0
1582033128317,3264625,0.0,1,0
1582033128418,3265281,0.0,1,0
1582033128517,3263779,0.0,1,0
1582033128617,3262288,0.0,1,0
1582033128717,3261604,0.0,1,0
1582033128817,3261085,0.0,1,0
1582033128917,3260902,0.0,1,0
1582033129017,3261225,0.0,1,0
1582033129118,3259386,0.0,1,0
1582033129217,3258187,0.0,1,0
1582033129317,3257962,0.0,1,0
1582033129418,3257698,0.0,1,0
1582033129517,3257822,0.0,1,0
1582033129618,3257906,0.0,1,0
1582033129729,3256054,0.0,1,0
1582033129818,3254862,0.0,1,0
1582033129928,3254401,0.0,1,0
1582033130028,3254163,0.0,1,0
1582033130128,3254462,0.0,1,0
1582033130228,3254611,0.0,1,0
1582033130329,3252179,0.0,1,0
1582033130428,3251026,0.0,1,0
1582033130528,3250604,0.0,1,0
1582033130629,3250436,0.0,1,0
1582033130718,3251079,0.0,1,0
1582033130818,3250901,0.0,1,0
1582033130919,3248533,0.0,1,0
1582033131018,3247182,0.0,1,0
1582033131119,3247041,0.0,1,0
1582033131219,3246904,0.0,1,0
1582033131319,3247739,0.0,1,0
1582033131419,3248175,0.0,1,0
1582033131521,3245786,0.0,1,0
1582033131619,3243871,0.0,1,0
1582033131719,3243332,0.0,1,0
1582033131819,3243040,0.0,1,0
1582033131919,3243057,0.0,1,0
1582033132019,3243843,0.0,1,0
1582033132120,3242819,0.0,1,0
1582033132219,3240942,0.0,1,0
1582033132319,3240759,0.0,1,0
1582033132420,3240970,0.0,1,0
1582033132520,3241196,0.0,1,0
1582033132620,3242275,0.0,1,0
1582033132720,3242121,0.0,1,0
1582033132830,3241085,0.0,1,0
1582033132930,3241277,0.0,1,0
1582033133030,3242053,0.0,1,0
1582033133130,3243117,0.0,1,0
1582033133231,3244341,0.0,1,0
1582033133331,3243678,0.0,1,0
1582033133430,3242942,0.0,1,0
1582033133530,3243541,0.0,1,0
1582033133631,3244324,0.0,1,0
1582033133731,3245380,0.0,1,0
1582033133830,3246886,0.0,1,0
1582033133931,3246048,0.0,1,0
1582033134031,3245435,0.0,1,0
1582033134131,3246045,0.0,1,0
1582033134231,3246554,0.0,1,0
1582033134331,3247712,0.0,1,0
1582033134431,3248819,0.0,1,0
1582033134532,3247810,0.0,1,0
1582033134631,3247024,0.0,1,0
1582033134731,3247275,0.0,1,0
1582033134832,3247621,0.0,1,0
1582033134931,3248561,0.0,1,0
1582033135031,3249494,0.0,1,0
1582033135132,3249229,0.0,1,0
1582033135231,3247981,0.0,1,0
1582033135331,3247873,0.0,1,0
1582033135432,3248107,0.0,1,0
1582033135532,3248174,0.0,1,0
1582033135632,3248937,0.0,1,0
1582033135732,3248714,0.0,1,0
1582033135836,3247797,0.0,1,0
1582033135922,3247958,0.0,1,0
1582033136022,3248304,0.0,1,0
1582033136122,3248726,0.0,1,0
1582033136222,3249625,0.0,1,0
1582033136322,3250118,0.0,1,0
1582033136422,3249471,0.0,1,0
1582033136522,3250351,0.0,1,0
1582033136623,3251300,0.0,1,0
1582033136722,3252342,0.0,1,0
1582033136822,3253809,0.0,1,0
1582033136923,3253487,0.0,1,0
1582033137022,3253403,0.0,1,0
1582033137123,3253940,0.0,1,0
1582033137223,3254770,0.0,1,0
1582033137323,3255750,0.0,1,0
1582033137423,3256375,0.0,1,0
1582033137523,3255359,0.0,1,0
1582033137623,3254875,0.0,1,0
1582033137723,3255269,0.0,1,0
1582033137823,3255579,0.0,1,0
1582033137923,3256223,0.0,1,0
1582033138023,3255791,0.0,1,0
1582033138124,3254069,0.0,1,0
1582033138223,3253381,0.0,1,0
1582033138333,3253143,0.0,1,0
1582033138434,3253076,0.0,1,0
1582033138534,3253594,0.0,1,0
1582033138634,3252732,0.0,1,0
1582033138734,3250801,0.0,1,0
1582033138834,3250144,0.0,1,0
1582033138934,3249704,0.0,1,0
1582033139035,3249379,0.0,1,0
1582033139134,3249795,0.0,1,0
1582033139235,3249190,0.0,1,0
1582033139335,3247433,0.0,1,0
1582033139435,3246799,0.0,1,0
1582033139534,3246427,0.0,1,0
1582033139635,3246372,0.0,1,0
1582033139735,3247065,0.0,1,0
1582033139834,3247109,0.0,1,0
1582033139935,3245924,0.0,1,0
1582033140035,3245915,0.0,1,0
1582033140135,3246275,0.0,1,0
1582033140235,3246824,0.0,1,0
1582033140335,3247765,0.0,1,0
1582033140435,3247429,0.0,1,0
1582033140535,3246414,0.0,1,0
1582033140635,3246742,0.0,1,0
1582033140735,3247148,0.0,1,0
1582033140836,3247630,0.0,1,0
1582033140935,3248526,0.0,1,0
1582033141035,3246809,0.0,1,0
1582033141128,3245545,0.0,1,0
1582033141225,3245478,0.0,1,0
1582033141325,3245459,0.0,1,0
1582033141426,3245839,0.0,1,0
1582033141525,3245941,0.0,1,0
1582033141626,3243573,0.0,1,0
1582033141726,3242368,0.0,1,0
1582033141826,3242195,0.0,1,0
1582033141926,3242365,0.0,1,0
1582033142026,3242825,0.0,1,0
1582033142126,3242173,0.0,1,0
1582033142226,3239139,0.0,1,0
1582033142327,3237703,0.0,1,0
1582033142438,3237110,0.0,1,0
1582033142526,3236881,0.0,1,0
1582033142627,3237201,0.0,1,0
1582033142726,3236660,0.0,1,0
1582033142826,3233183,0.0,1,0
1582033142927,3231248,0.0,1,0
1582033143026,3230448,0.0,1,0
1582033143129,3229909,0.0,1,0
1582033143227,3230301,0.0,1,0
1582033143327,3230791,0.0,1,0
1582033143427,3227390,0.0,1,0
1582033143528,3224682,0.0,1,0
1582033143627,3223981,0.0,1,0
1582033143727,3223218,0.0,1,0
1582033143827,3223264,0.0,1,0
1582033143938,3223868,0.0,1,0
1582033144037,3223801,0.0,1,0
1582033144138,3220571,0.0,1,0
1582033144237,3219041,0.0,1,0
1582033144338,3218942,0.0,1,0
1582033144438,3218596,0.0,1,0
1582033144538,3219390,0.0,1,0
1582033144640,3220809,0.0,1,0
1582033144738,3218813,0.0,1,0
1582033144838,3217043,0.0,1,0
1582033144938,3217760,0.0,1,0
1582033145039,3218020,0.0,1,0
1582033145138,3218933,0.0,1,0
1582033145239,3220226,0.0,1,0
1582033145339,3218181,0.0,1,0
1582033145438,3216538,0.0,1,0
1582033145538,3217131,0.0,1,0
1582033145639,3217443,0.0,1,0
1582033145739,3218373,0.0,1,0
1582033145839,3219678,0.0,1,0
1582033145939,3216544,0.0,1,0
1582033146039,3214871,0.0,1,0
1582033146129,3215013,0.0,1,0
1582033146229,3215162,0.0,1,0
1582033146329,3216469,0.0,1,0
1582033146429,3217437,0.0,1,0
1582033146529,3213875,0.0,1,0
1582033146629,3211889,0.0,1,0
1582033146729,3212010,0.0,1,0
1582033146829,3212254,0.0,1,0
1582033146929,3213436,0.0,1,0
1582033147029,3214725,0.0,1,0
1582033147130,3210832,0.0,1,0
1582033147229,3208543,0.0,1,0
1582033147329,3208973,0.0,1,0
1582033147430,3209457,0.0,1,0
1582033147529,3211060,0.0,1,0
1582033147630,3213280,0.0,1,0
1582033147730,3212840,0.0,1,0
1582033147840,3209127,0.0,1,0
1582033147940,3208011,0.0,1,0
1582033148040,3208378,0.0,1,0
1582033148141,3209229,0.0,1,0
1582033148240,3211151,0.0,1,0
1582033148341,3213292,0.0,1,0
1582033148440,3215231,0.0,1,0
1582033148540,3211891,0.0,1,0
1582033148641,3209492,0.0,1,0
1582033148740,3209499,0.0,1,0
1582033148840,3209543,0.0,1,0
1582033148941,3210780,0.0,1,0
1582033149041,3212676,0.0,1,0
1582033149141,3214447,0.0,1,0
1582033149241,3211759,0.0,1,0
1582033149341,3210198,0.0,1,0
1582033149441,3211200,0.0,1,0
1582033149541,3212073,0.0,1,0
1582033149641,3213619,0.0,1,0
1582033149741,3215909,0.0,1,0
1582033149842,3216680,0.0,1,0
1582033149941,3214287,0.0,1,0
1582033150041,3214695,0.0,1,0
1582033150142,3215762,0.0,1,0
1582033150241,3217084,0.0,1,0
1582033150341,3219279,0.0,1,0
1582033150442,3221751,0.0,1,0
1582033150542,3224142,0.0,1,0
1582033150641,3221963,0.0,1,0
1582033150742,3220999,0.0,1,0
1582033150842,3222000,0.0,1,0
1582033150942,3223326,0.0,1,0
1582033151042,3225087,0.0,1,0
1582033151132,3227435,0.0,1,0
1582033151232,3229652,0.0,1,0
1582033151333,3228040,0.0,1,0
1582033151432,3226898,0.0,1,0
1582033151532,3227532,0.0,1,0
1582033151633,3228288,0.0,1,0
1582033151732,3229975,0.0,1,0
1582033151832,3231898,0.0,1,0
1582033151933,3233671,0.0,1,0
1582033152032,3234398,0.0,1,0
1582033152143,3231767,0.0,1,0
1582033152243,3231723,0.0,1,0
1582033152343,3232430,0.0,1,0
1582033152443,3233185,0.0,1,0
1582033152544,3234801,0.0,1,0
1582033152643,3236503,0.0,1,0
1582033152743,3234813,0.0,1,0
1582033152844,3234202,0.0,1,0
1582033152943,3235543,0.0,1,0
1582033153043,3236415,0.0,1,0
1582033153144,3237732,0.0,1,0
1582033153244,3239307,0.0,1,0
1582033153344,3237791,0.0,1,0
1582033153444,3236479,0.0,1,0
1582033153544,3236992,0.0,1,0
1582033153644,3237797,0.0,1,0
1582033153744,3238764,0.0,1,0
1582033153844,3240541,0.0,1,0
1582033153944,3239723,0.0,1,0
1582033154045,3237645,0.0,1,0
1582033154144,3237889,0.0,1,0
1582033154244,3238667,0.0,1,0
1582033154345,3239902,0.0,1,0
1582033154449,3241393,0.0,1,0
1582033154546,3241186,0.0,1,0
1582033154648,3238496,0.0,1,0
1582033154746,3239041,0.0,1,0
1582033154845,3239501,0.0,1,0
1582033154946,3240653,0.0,1,0
1582033155045,3242284,0.0,1,0
1582033155146,3240508,0.0,1,0
1582033155246,3238428,0.0,1,0
1582033155345,3238469,0.0,1,0
1582033155435,3238700,0.0,1,0
1582033155535,3239322,0.0,1,0
1582033155635,3240478,0.0,1,0
1582033155735,3239212,0.0,1,0
1582033155835,3236734,0.0,1,0
1582033155935,3236823,0.0,1,0
1582033156035,3237016,0.0,1,0
1582033156136,3237751,0.0,1,0
1582033156235,3239048,0.0,1,0
1582033156335,3237386,0.0,1,0
1582033156436,3235672,0.0,1,0
1582033156536,3236185,0.0,1,0
1582033156636,3236530,0.0,1,0
1582033156737,3237455,0.0,1,0
1582033156836,3238649,0.0,1,0
1582033156936,3236051,0.0,1,0
1582033157036,3234847,0.0,1,0
1582033157136,3235358,0.0,1,0
1582033157246,3235612,0.0,1,0
1582033157337,3236598,0.0,1,0
1582033157436,3236946,0.0,1,0
1582033157536,3233619,0.0,1,0
1582033157647,3232584,0.0,1,0
1582033157747,3233179,0.0,1,0
1582033157848,3233328,0.0,1,0
1582033157947,3234344,0.0,1,0
1582033158047,3233557,0.0,1,0
1582033158147,3230134,0.0,1,0
1582033158238,3229377,0.0,1,0
1582033158337,3229353,0.0,1,0
1582033158437,3229773,0.0,1,0
1582033158538,3231230,0.0,1,0
1582033158637,3229976,0.0,1,0
1582033158737,3226968,0.0,1,0
1582033158837,3226634,0.0,1,0
1582033158937,3226574,0.0,1,0
1582033159037,3226944,0.0,1,0
1582033159138,3228134,0.0,1,0
1582033159237,3227347,0.0,1,0
1582033159337,3224570,0.0,1,0
1582033159438,3224705,0.0,1,0
1582033159537,3224925,0.0,1,0
1582033159638,3225820,0.0,1,0
1582033159749,3227354,0.0,1,0
1582033159838,3226128,0.0,1,0
1582033159948,3224464,0.0,1,0
1582033160048,3225430,0.0,1,0
1582033160148,3226115,0.0,1,0
1582033160248,3227567,0.0,1,0
1582033160349,3229074,0.0,1,0
1582033160448,3226688,0.0,1,0
1582033160548,3225597,0.0,1,0
1582033160649,3226618,0.0,1,0
1582033160749,3227283,0.0,1,0
1582033160838,3228606,0.0,1,0
1582033160939,3229692,0.0,1,0
1582033161038,3226501,0.0,1,0
1582033161139,3225952,0.0,1,0
1582033161239,3226388,0.0,1,0
1582033161339,3227197,0.0,1,0
1582033161439,3228441,0.0,1,0
1582033161539,3228235,0.0,1,0
1582033161639,3225276,0.0,1,0
1582033161739,3225033,0.0,1,0
1582033161839,3225615,0.0,1,0
1582033161939,3226489,0.0,1,0
1582033162039,3227761,0.0,1,0
1582033162140,3228548,0.0,1,0
1582033162239,3225392,0.0,1,0
1582033162339,3224808,0.0,1,0
1582033162440,3225514,0.0,1,0
1582033162540,3225949,0.0,1,0
1582033162640,3227359,0.0,1,0
1582033162741,3228707,0.0,1,0
1582033162850,3225985,0.0,1,0
1582033162950,3225568,0.0,1,0
1582033163051,3226625,0.0,1,0
1582033163150,3227374,0.0,1,0
1582033163251,3228743,0.0,1,0
1582033163351,3230249,0.0,1,0
1582033163450,3228140,0.0,1,0
1582033163550,3228089,0.0,1,0
1582033163651,3229074,0.0,1,0
1582033163750,3230017,0.0,1,0
1582033163850,3231746,0.0,1,0
1582033163951,3232560,0.0,1,0
1582033164051,3230256,0.0,1,0
1582033164151,3230731,0.0,1,0
1582033164251,3231762,0.0,1,0
1582033164351,3232791,0.0,1,0
1582033164451,3234625,0.0,1,0
1582033164552,3233943,0.0,1,0
1582033164651,3231749,0.0,1,0
1582033164751,3231793,0.0,1,0
1582033164852,3232349,0.0,1,0
1582033164951,3233034,0.0,1,0
1582033165051,3234655,0.0,1,0
1582033165152,3232566,0.0,1,0
1582033165252,3230260,0.0,1,0
1582033165352,3230099,0.0,1,0
1582033165452,3230363,0.0,1,0
1582033165552,3230859,0.0,1,0
1582033165652,3232371,0.0,1,0
1582033165752,3230172,0.0,1,0
1582033165852,3227683,0.0,1,0
1582033165952,3227288,0.0,1,0
1582033166052,3227295,0.0,1,0
1582033166142,3227813,0.0,1,0
1582033166242,3228970,0.0,1,0
1582033166343,3228392,0.0,1,0
1582033166442,3225134,0.0,1,0
1582033166542,3224584,0.0,1,0
1582033166643,3224470,0.0,1,0
1582033166742,3224851,0.0,1,0
1582033166842,3226023,0.0,1,0
1582033166943,3227001,0.0,1,0
1582033167042,3224003,0.0,1,0
1582033167143,3223595,0.0,1,0
1582033167243,3224421,0.0,1,0
1582033167343,3224854,0.0,1,0
1582033167443,3226174,0.0,1,0
1582033167543,3227068,0.0,1,0
1582033167643,3224186,0.0,1,0
1582033167743,3223926,0.0,1,0
1582033167843,3224701,0.0,1,0
1582033167943,3225275,0.0,1,0
1582033168043,3226607,0.0,1,0
1582033168154,3227160,0.0,1,0
1582033168253,3223231,0.0,1,0
1582033168353,3222452,0.0,1,0
1582033168454,3222631,0.0,1,0
1582033168554,3222908,0.0,1,0
1582033168654,3223887,0.0,1,0
1582033168754,3223466,0.0,1,0
1582033168854,3219363,0.0,1,0
1582033168954,3217663,0.0,1,0
1582033169055,3217265,0.0,1,0
1582033169154,3217102,0.0,1,0
1582033169255,3218101,0.0,1,0
1582033169355,3218152,0.0,1,0
1582033169454,3213381,0.0,1,0
1582033169554,3211565,0.0,1,0
1582033169655,3211299,0.0,1,0
1582033169755,3210961,0.0,1,0
1582033169854,3211759,0.0,1,0
1582033169957,3212740,0.0,1,0
1582033170055,3208219,0.0,1,0
1582033170155,3206184,0.0,1,0
1582033170255,3206292,0.0,1,0
1582033170355,3206017,0.0,1,0
1582033170455,3206963,0.0,1,0
1582033170556,3208575,0.0,1,0
1582033170655,3205367,0.0,1,0
1582033170755,3204008,0.0,1,0
1582033170856,3204885,0.0,1,0
1582033170955,3205344,0.0,1,0
1582033171055,3206879,0.0,1,0
1582033171148,3208754,0.0,1,0
1582033171245,3205324,0.0,1,0
1582033171345,3204403,0.0,1,0
1582033171446,3205422,0.0,1,0
1582033171545,3205823,0.0,1,0
1582033171646,3207619,0.0,1,0
1582033171746,3208942,0.0,1,0
1582033171846,3204541,0.0,1,0
1582033171946,3202977,0.0,1,0
1582033172046,3203111,0.0,1,0
1582033172146,3203525,0.0,1,0
1582033172246,3204953,0.0,1,0
1582033172347,3206254,0.0,1,0
1582033172448,3201406,0.0,1,0
1582033172546,3199486,0.0,1,0
1582033172647,3199771,0.0,1,0
1582033172746,3200060,0.0,1,0
1582033172857,3201308,0.0,1,0
1582033172947,3203243,0.0,1,0
1582033173057,3199921,0.0,1,0
1582033173159,3197387,0.0,1,0
1582033173257,3197526,0.0,1,0
1582033173357,3198105,0.0,1,0
1582033173457,3199159,0.0,1,0
1582033173558,3200839,0.0,1,0
1582033173658,3200860,0.0,1,0
1582033173757,3197452,0.0,1,0
1582033173858,3197576,0.0,1,0
1582033173959,3198870,0.0,1,0
1582033174058,3200288,0.0,1,0
1582033174158,3202725,0.0,1,0
1582033174257,3205047,0.0,1,0
1582033174358,3202124,0.0,1,0
1582033174458,3202049,0.0,1,0
1582033174558,3203517,0.0,1,0
1582033174658,3204500,0.0,1,0
1582033174758,3206707,0.0,1,0
1582033174858,3208957,0.0,1,0
1582033174958,3206015,0.0,1,0
1582033175059,3205404,0.0,1,0
1582033175158,3207450,0.0,1,0
1582033175259,3208961,0.0,1,0
1582033175359,3210883,0.0,1,0
1582033175458,3213461,0.0,1,0
1582033175558,3210831,0.0,1,0
1582033175659,3209372,0.0,1,0
1582033175758,3210596,0.0,1,0
1582033175858,3211439,0.0,1,0
1582033175959,3213001,0.0,1,0
1582033176059,3215305,0.0,1,0
1582033176149,3212905,0.0,1,0
1582033176249,3211300,0.0,1,0
1582033176349,3212343,0.0,1,0
1582033176449,3213256,0.0,1,0
1582033176549,3214354,0.0,1,0
1582033176649,3216128,0.0,1,0
1582033176749,3213314,0.0,1,0
1582033176850,3211711,0.0,1,0
1582033176949,3212988,0.0,1,0
1582033177049,3213625,0.0,1,0
1582033177150,3215033,0.0,1,0
1582033177250,3216893,0.0,1,0
1582033177349,3213864,0.0,1,0
1582033177450,3212788,0.0,1,0
1582033177549,3214044,0.0,1,0
1582033177650,3214809,0.0,1,0
1582033177760,3216306,0.0,1,0
1582033177850,3218378,0.0,1,0
1582033177960,3220387,0.0,1,0
1582033178061,3217198,0.0,1,0
1582033178160,3215801,0.0,1,0
1582033178260,3216705,0.0,1,0
1582033178361,3217437,0.0,1,0
1582033178460,3219076,0.0,1,0
1582033178560,3221036,0.0,1,0
1582033178661,3222603,0.0,1,0
1582033178761,3219228,0.0,1,0
1582033178860,3218249,0.0,1,0
1582033178961,3219421,0.0,1,0
1582033179061,3220199,0.0,1,0
1582033179161,3221695,0.0,1,0
1582033179261,3223579,0.0,1,0
1582033179361,3224105,0.0,1,0
1582033179461,3220175,0.0,1,0
1582033179561,3219607,0.0,1,0
1582033179661,3220589,0.0,1,0
1582033179761,3221368,0.0,1,0
1582033179862,3223105,0.0,1,0
1582033179961,3225107,0.0,1,0
1582033180061,3223501,0.0,1,0
1582033180162,3220635,0.0,1,0
1582033180261,3220744,0.0,1,0
1582033180361,3221623,0.0,1,0
1582033180462,3222653,0.0,1,0
1582033180562,3224298,0.0,1,0
1582033180662,3225743,0.0,1,0
1582033180762,3221738,0.0,1,0
1582033180862,3220293,0.0,1,0
1582033180962,3221108,0.0,1,0
1582033181062,3221910,0.0,1,0
1582033181152,3223307,0.0,1,0
1582033181252,3225141,0.0,1,0
1582033181353,3225178,0.0,1,0
1582033181452,3221840,0.0,1,0
1582033181552,3221878,0.0,1,0
1582033181653,3222835,0.0,1,0
1582033181752,3223736,0.0,1,0
1582033181852,3225539,0.0,1,0
1582033181953,3227590,0.0,1,0
1582033182063,3224656,0.0,1,0
1582033182163,3223456,0.0,1,0
1582033182263,3224749,0.0,1,0
1582033182363,3225741,0.0,1,0
1582033182463,3227233,0.0,1,0
1582033182564,3229460,0.0,1,0
1582033182663,3229854,0.0,1,0
1582033182763,3227153,0.0,1,0
1582033182864,3227653,0.0,1,0
1582033182963,3228912,0.0,1,0
1582033183063,3230005,0.0,1,0
1582033183164,3231793,0.0,1,0
1582033183264,3233708,0.0,1,0
1582033183364,3231029,0.0,1,0
1582033183464,3230472,0.0,1,0
1582033183564,3231751,0.0,1,0
1582033183664,3232513,0.0,1,0
1582033183764,3233992,0.0,1,0
1582033183864,3235923,0.0,1,0
1582033183964,3234197,0.0,1,0
1582033184065,3233622,0.0,1,0
1582033184164,3235239,0.0,1,0
1582033184264,3236339,0.0,1,0
1582033184365,3237755,0.0,1,0
1582033184465,3239782,0.0,1,0
1582033184564,3238725,0.0,1,0
1582033184665,3237907,0.0,1,0
1582033184764,3239762,0.0,1,0
1582033184865,3241423,0.0,1,0
1582033184965,3243134,0.0,1,0
1582033185065,3245320,0.0,1,0
1582033185165,3244954,0.0,1,0
1582033185266,3243194,0.0,1,0
1582033185365,3243643,0.0,1,0
1582033185465,3244014,0.0,1,0
1582033185566,3244508,0.0,1,0
1582033185655,3245919,0.0,1,0
1582033185755,3245250,0.0,1,0
1582033185856,3242643,0.0,1,0
1582033185955,3242798,0.0,1,0
1582033186055,3243442,0.0,1,0
1582033186156,3243953,0.0,1,0
1582033186255,3245406,0.0,1,0
1582033186355,3246153,0.0,1,0
1582033186456,3242923,0.0,1,0
1582033186556,3242422,0.0,1,0
1582033186656,3243039,0.0,1,0
1582033186756,3243152,0.0,1,0
1582033186856,3244255,0.0,1,0
1582033186956,3245381,0.0,1,0
1582033187056,3243830,0.0,1,0
1582033187158,3241317,0.0,1,0
1582033187257,3241228,0.0,1,0
1582033187357,3241133,0.0,1,0
1582033187458,3241459,0.0,1,0
1582033187558,3243002,0.0,1,0
1582033187658,3240177,0.0,1,0
1582033187758,3238381,0.0,1,0
1582033187857,3238900,0.0,1,0
1582033187969,3238849,0.0,1,0
1582033188067,3239408,0.0,1,0
1582033188176,3240677,0.0,1,0
1582033188258,3239181,0.0,1,0
1582033188357,3236184,0.0,1,0
1582033188457,3236286,0.0,1,0
1582033188558,3236142,0.0,1,0
1582033188657,3236573,0.0,1,0
1582033188757,3237745,0.0,1,0
1582033188858,3238987,0.0,1,0
1582033188957,3235782,0.0,1,0
1582033189058,3233404,0.0,1,0
1582033189158,3233264,0.0,1,0
1582033189257,3233087,0.0,1,0
1582033189357,3233612,0.0,1,0
1582033189458,3235223,0.0,1,0
1582033189557,3236368,0.0,1,0
1582033189660,3232310,0.0,1,0
1582033189758,3230428,0.0,1,0
1582033189868,3230438,0.0,1,0
1582033189968,3230370,0.0,1,0
1582033190069,3231224,0.0,1,0
1582033190168,3232682,0.0,1,0
1582033190268,3232510,0.0,1,0
1582033190369,3228520,0.0,1,0
1582033190468,3227512,0.0,1,0
1582033190568,3227741,0.0,1,0
1582033190659,3228006,0.0,1,0
1582033190758,3229221,0.0,1,0
1582033190858,3230971,0.0,1,0
1582033190959,3230411,0.0,1,0
1582033191058,3227403,0.0,1,0
1582033191159,3227299,0.0,1,0
1582033191259,3227956,0.0,1,0
1582033191359,3228373,0.0,1,0
1582033191459,3229795,0.0,1,0
1582033191559,3231541,0.0,1,0
1582033191659,3230883,0.0,1,0
1582033191759,3228210,0.0,1,0
1582033191860,3228369,0.0,1,0
1582033191959,3228841,0.0,1,0
1582033192059,3229450,0.0,1,0
1582033192160,3230840,0.0,1,0
1582033192259,3232455,0.0,1,0
1582033192359,3230023,0.0,1,0
1582033192460,3229635,0.0,1,0
1582033192560,3230578,0.0,1,0
1582033192660,3231160,0.0,1,0
1582033192760,3232367,0.0,1,0
1582033192870,3234363,0.0,1,0
1582033192970,3232707,0.0,1,0
1582033193071,3231734,0.0,1,0
1582033193170,3232931,0.0,1,0
1582033193271,3233753,0.0,1,0
1582033193371,3234999,0.0,1,0
1582033193470,3236900,0.0,1,0
1582033193570,3236526,0.0,1,0
1582033193671,3234773,0.0,1,0
1582033193770,3235317,0.0,1,0
1582033193871,3236144,0.0,1,0
1582033193971,3237255,0.0,1,0
1582033194071,3238878,0.0,1,0
1582033194171,3239861,0.0,1,0
1582033194271,3237478,0.0,1,0
1582033194371,3237375,0.0,1,0
1582033194471,3238290,0.0,1,0
1582033194572,3238922,0.0,1,0
1582033194671,3240255,0.0,1,0
1582033194771,3242161,0.0,1,0
1582033194872,3240197,0.0,1,0
1582033194971,3239266,0.0,1,0
1582033195071,3240074,0.0,1,0
1582033195172,3240738,0.0,1,0
1582033195271,3241845,0.0,1,0
1582033195372,3243462,0.0,1,0
1582033195472,3243398,0.0,1,0
1582033195572,3241497,0.0,1,0
1582033195672,3241902,0.0,1,0
1582033195772,3242438,0.0,1,0
1582033195876,3242972,0.0,1,0
1582033195962,3244321,0.0,1,0
1582033196062,3245236,0.0,1,0
1582033196162,3243127,0.0,1,0
1582033196262,3242747,0.0,1,0
1582033196363,3243557,0.0,1,0
1582033196462,3244016,0.0,1,0
1582033196562,3244746,0.0,1,0
1582033196663,3246179,0.0,1,0
1582033196762,3243997,0.0,1,0
1582033196862,3243207,0.0,1,0
1582033196963,3243968,0.0,1,0
1582033197062,3244218,0.0,1,0
1582033197163,3245107,0.0,1,0
1582033197263,3246354,0.0,1,0
1582033197363,3244882,0.0,1,0
1582033197463,3242976,0.0,1,0
1582033197563,3243160,0.0,1,0
1582033197663,3243131,0.0,1,0
1582033197763,3243502,0.0,1,0
1582033197864,3244922,0.0,1,0
1582033197963,3243572,0.0,1,0
1582033198063,3240844,0.0,1,0
1582033198164,3240396,0.0,1,0
1582033198263,3240029,0.0,1,0
1582033198363,3240161,0.0,1,0
1582033198464,3241058,0.0,1,0
1582033198574,3241698,0.0,1,0
1582033198674,3237677,0.0,1,0
1582033198774,3235844,0.0,1,0
1582033198874,3235658,0.0,1,0
1582033198974,3235017,0.0,1,0
1582033199075,3235895,0.0,1,0
1582033199174,3236790,0.0,1,0
1582033199275,3234421,0.0,1,0
1582033199375,3231040,0.0,1,0
1582033199474,3230459,0.0,1,0
1582033199575,3229849,0.0,1,0
1582033199675,3229641,0.0,1,0
1582033199775,3230657,0.0,1,0
1582033199875,3230503,0.0,1,0
1582033199975,3226480,0.0,1,0
1582033200075,3225446,0.0,0,0
1582033200175,3225456,0.0,0,0
1582033200275,3225385,0.0,0,0
1582033200375,3226064,0.0,0,0
1582033200475,3226914,0.0,0,0
1582033200576,3223524,0.0,0,0
1582033200675,3223084,0.0,0,0
1582033200775,3223729,0.0,0,0
1582033200876,3223502,0.0,0,0
1582033200975,3223549,0.0,0,0
1582033201065,3222824,0.0,0,0
1582033201168,3218166,0.0,0,0
1582033201265,3216175,0.0,0,0
1582033201365,3215815,0.0,0,0
1582033201466,3214946,0.0,0,0
1582033201565,3215081,0.0,0,0
1582033201666,3213602,0.0,0,0
1582033201766,3209337,0.0,0,0
1582033201866,3208179,0.0,0,0
1582033201966,3207536,0.0,0,0
1582033202066,3207310,0.0,0,0
1582033202166,3208166,0.0,0,0
1582033202266,3203841,0.0,0,0
1582033202367,3201016,0.0,0,0
1582033202468,3200748,0.0,0,0
1582033202566,3200533,0.0,0,0
1582033202667,3201348,0.0,0,0
1582033202766,3202839,0.0,0,0
1582033202866,3198394,0.0,0,0
1582033202967,3197082,0.0,0,0
1582033203068,3198253,0.0,0,0
1582033203168,3198336,0.0,0,0
1582033203267,3199229,0.0,0,0
1582033203367,3200572,0.0,0,0
1582033203467,3196055,0.0,0,0
1582033203567,3194553,0.0,0,0
1582033203677,3194923,0.0,0,0
1582033203777,3195230,0.0,0,0
1582033203878,3197007,0.0,0,0
1582033203979,3197358,0.0,0,0
1582033204077,3193962,0.0,0,0
1582033204178,3194344,0.0,0,0
1582033204278,3195471,0.0,0,0
1582033204378,3196746,0.0,0,0
1582033204478,3198052,0.0,0,0
1582033204578,3195775,0.0,0,0
1582033204678,3194544,0.0,0,0
1582033204779,3196640,0.0,0,0
1582033204878,3197705,0.0,0,0
1582033204978,3199452,0.0,0,0
1582033205079,3200334,0.0,0,0
1582033205178,3197485,0.0,0,0
1582033205280,3198161,0.0,0,0
1582033205379,3198876,0.0,0,0
1582033205478,3200691,0.0,0,0
1582033205579,3203200,0.0,0,0
1582033205679,3200559,0.0,0,0
1582033205778,3199385,0.0,0,0
1582033205879,3200130,0.0,0,0
1582033205979,3201385,0.0,0,0
1582033206069,3205251,0.0,0,0
1582033206169,3208934,0.0,0,0
1582033206269,3208269,0.0,0,0
1582033206369,3209497,0.0,0,0
1582033206469,3211891,0.0,0,0
1582033206570,3213740,0.0,0,0
1582033206669,3215819,0.0,0,0
1582033206769,3216626,0.0,0,0
1582033206870,3214639,0.0,0,0
1582033206969,3215683,0.0,0,0
1582033207069,3216911,0.0,0,0
1582033207170,3218565,0.0,0,0
1582033207269,3220659,0.0,0,0
1582033207369,3221417,0.0,0,0
1582033207470,3219978,0.0,0,0
1582033207569,3221020,0.0,0,0
1582033207670,3222789,0.0,0,0
1582033207780,3224390,0.0,0,0
1582033207880,3226821,0.0,0,0
1582033207980,3227824,0.0,0,0
1582033208081,3226761,0.0,0,0
1582033208181,3226517,0.0,0,0
1582033208280,3225830,0.0,0,0
1582033208382,3226370,0.0,0,0
1582033208480,3227945,0.0,0,0
1582033208580,3228055,0.0,0,0
1582033208681,3226427,0.0,0,0
1582033208780,3227318,0.0,0,0
1582033208881,3227498,0.0,0,0
1582033208981,3228618,0.0,0,0
1582033209081,3232950,0.0,0,0
1582033209181,3234163,0.0,0,0
1582033209281,3236332,0.0,0,0
1582033209381,3239580,0.0,0,0
1582033209481,3241739,0.0,0,0
1582033209582,3244322,0.0,0,0
1582033209681,3246164,0.0,0,0
1582033209781,3245302,0.0,0,0
1582033209882,3246602,0.0,0,0
1582033209981,3248216,0.0,0,0
1582033210081,3249502,0.0,0,0
1582033210182,3251280,0.0,0,0
1582033210281,3250048,0.0,0,0
1582033210382,3249862,0.0,0,0
1582033210482,3251225,0.0,0,0
1582033210582,3252175,0.0,0,0
1582033210682,3253498,0.0,0,0
1582033210782,3253497,0.0,0,0
1582033210882,3251969,0.0,0,0
1582033210982,3252294,0.0,0,0
1582033211073,3253218,0.0,0,0
1582033211172,3253914,0.0,0,0
1582033211272,3254931,0.0,0,0
1582033211373,3253848,0.0,0,0
1582033211472,3253673,0.0,0,0
1582033211572,3254504,0.0,0,0
1582033211673,3254823,0.0,0,0
1582033211772,3255737,0.0,0,0
1582033211872,3255297,0.0,0,0
1582033211973,3255830,0.0,0,0
1582033212072,3256894,0.0,0,0
1582033212173,3257788,0.0,0,0
1582033212273,3258782,0.0,0,0
1582033212383,3258096,0.0,0,0
1582033212483,3257379,0.0,0,0
1582033212584,3258748,0.0,0,0
1582033212683,3260512,0.0,0,0
1582033212783,3262236,0.0,0,0
1582033212884,3262231,0.0,0,0
1582033212983,3261072,0.0,0,0
1582033213083,3261988,0.0,0,0
1582033213184,3262634,0.0,0,0
1582033213284,3263260,0.0,0,0
1582033213384,3262549,0.0,0,0
1582033213484,3260914,0.0,0,0
1582033213585,3261167,0.0,0,0
1582033213684,3261164,0.0,0,0
1582033213784,3262022,0.0,0,0
1582033213884,3262456,0.0,0,0
1582033213985,3261499,0.0,0,0
1582033214085,3261493,0.0,0,0
1582033214184,3260946,0.0,0,0
1582033214284,3260025,0.0,0,0
1582033214385,3258400,0.0,0,0
1582033214485,3255461,0.0,0,0
1582033214585,3255537,0.0,0,0
1582033214686,3255654,0.0,0,0
1582033214785,3255260,0.0,0,0
1582033214885,3254654,0.0,0,0
1582033214985,3252683,0.0,0,0
1582033215085,3252915,0.0,0,0
1582033215185,3252974,0.0,0,0
1582033215288,3252676,0.0,0,0
1582033215385,3252565,0.0,0,0
1582033215475,3251768,0.0,0,0
1582033215575,3251624,0.0,0,0
1582033215675,3252747,0.0,0,0
1582033215775,3253751,0.0,0,0
1582033215876,3254482,0.0,0,0
1582033215975,3251588,0.0,0,0
1582033216075,3250616,0.0,0,0
1582033216176,3250689,0.0,0,0
1582033216275,3250671,0.0,0,0
1582033216375,3251992,0.0,0,0
1582033216478,3251409,0.0,0,0
1582033216576,3250989,0.0,0,0
1582033216676,3251644,0.0,0,0
1582033216776,3252046,0.0,0,0
1582033216876,3252232,0.0,0,0
1582033216976,3250602,0.0,0,0
1582033217077,3248746,0.0,0,0
1582033217178,3248563,0.0,0,0
1582033217287,3249635,0.0,0,0
1582033217377,3251122,0.0,0,0
1582033217476,3251585,0.0,0,0
1582033217577,3249790,0.0,0,0
1582033217677,3250926,0.0,0,0
1582033217776,3252506,0.0,0,0
1582033217877,3253903,0.0,0,0
1582033217988,3255436,0.0,0,0
1582033218087,3255209,0.0,0,0
1582033218194,3256073,0.0,0,0
1582033218278,3258258,0.0,0,0
1582033218377,3258701,0.0,0,0
1582033218477,3258716,0.0,0,0
1582033218578,3256714,0.0,0,0
1582033218677,3256398,0.0,0,0
1582033218777,3256663,0.0,0,0
1582033218878,3256724,0.0,0,0
1582033218977,3256929,0.0,0,0
1582033219077,3255341,0.0,0,0
1582033219178,3254621,0.0,0,0
1582033219277,3254326,0.0,0,0
1582033219377,3255529,0.0,0,0
1582033219478,3257154,0.0,0,0
1582033219577,3256737,0.0,0,0
1582033219678,3257459,0.0,0,0
1582033219778,3259001,0.0,0,0
1582033219878,3259649,0.0,0,0
1582033219978,3259759,0.0,0,0
1582033220090,3257769,0.0,0,0
1582033220190,3257296,0.0,0,0
1582033220279,3257521,0.0,0,0
1582033220391,3259020,0.0,0,0
1582033220489,3258239,0.0,0,0
1582033220589,3259916,0.0,0,0
1582033220690,3263295,0.0,0,0
1582033220789,3266008,0.0,0,0
1582033220878,3266958,0.0,0,0
1582033220979,3266100,0.0,0,0
1582033221079,3265980,0.0,0,0
1582033221179,3266122,0.0,0,0
1582033221279,3266544,0.0,0,0
1582033221379,3267381,0.0,0,0
1582033221479,3265947,0.0,0,0
1582033221579,3266139,0.0,0,0
1582033221679,3268233,0.0,0,0
1582033221779,3271336,0.0,0,0
1582033221880,3272457,0.0,0,0
1582033221979,3270725,0.0,0,0
1582033222079,3270292,0.0,0,0
1582033222180,3270332,0.0,0,0
1582033222279,3270260,0.0,0,0
1582033222379,3270699,0.0,0,0
1582033222480,3269198,0.0,0,0
1582033222580,3268139,0.0,0,0
1582033222690,3267679,0.0,0,0
1582033222780,3267196,0.0,0,0
1582033222890,3265785,0.0,0,0
1582033222990,3262085,0.0,0,0
1582033223091,3260766,0.0,0,0
1582033223190,3260371,0.0,0,0
1582033223291,3260110,0.0,0,0
1582033223391,3259039,0.0,0,0
1582033223490,3256281,0.0,0,0
1582033223591,3254958,0.0,0,0
1582033223691,3254422,0.0,0,0
1582033223791,3254571,0.0,0,0
1582033223891,3254582,0.0,0,0
1582033223991,3253042,0.0,0,0
1582033224091,3252994,0.0,0,0
1582033224191,3253624,0.0,0,0
1582033224291,3254777,0.0,0,0
1582033224391,3254815,0.0,0,0
1582033224491,3253864,0.0,0,0
1582033224592,3254607,0.0,0,0
1582033224691,3255654,0.0,0,0
1582033224791,3256841,0.0,0,0
1582033224892,3256254,0.0,0,0
1582033224991,3255648,0.0,0,0
1582033225091,3256239,0.0,0,0
1582033225192,3256988,0.0,0,0
1582033225292,3257873,0.0,0,0
1582033225392,3256987,0.0,0,0
1582033225492,3256464,0.0,0,0
1582033225592,3256983,0.0,0,0
1582033225692,3257587,0.0,0,0
1582033225792,3258071,0.0,0,0
1582033225892,3257009,0.0,0,0
1582033225992,3256494,0.0,0,0
1582033226083,3256915,0.0,0,0
1582033226182,3257132,0.0,0,0
1582033226282,3257363,0.0,0,0
1582033226383,3256081,0.0,0,0
1582033226482,3255654,0.0,0,0
1582033226582,3256042,0.0,0,0
1582033226683,3256448,0.0,0,0
1582033226782,3256648,0.0,0,0
1582033226882,3255761,0.0,0,0
1582033226983,3255015,0.0,0,0
1582033227082,3254893,0.0,0,0
1582033227183,3255929,0.0,0,0
1582033227283,3256846,0.0,0,0
1582033227383,3256763,0.0,0,0
1582033227483,3257828,0.0,0,0
1582033227583,3259422,0.0,0,0
1582033227683,3261121,0.0,0,0
1582033227783,3262035,0.0,0,0
1582033227884,3262035,0.0,0,0
1582033227983,3263463,0.0,0,0
1582033228083,3264413,0.0,0,0
1582033228194,3265217,0.0,0,0
1582033228294,3265377,0.0,0,0
1582033228394,3265904,0.0,0,0
1582033228494,3266405,0.0,0,0
1582033228594,3267778,0.0,0,0
1582033228694,3267883,0.0,0,0
1582033228795,3266721,0.0,0,0
1582033228894,3266112,0.0,0,0
1582033228994,3265766,0.0,0,0
1582033229095,3265370,0.0,0,0
1582033229194,3263482,0.0,0,0
1582033229295,3261693,0.0,0,0
1582033229395,3261104,0.0,0,0
1582033229494,3261254,0.0,0,0
1582033229595,3261852,0.0,0,0
1582033229695,3260876,0.0,0,0
1582033229795,3260404,0.0,0,0
1582033229895,3261072,0.0,0,0
1582033229995,3262096,0.0,0,0
1582033230095,3262982,0.0,0,0
1582033230195,3261900,0.0,0,0
1582033230295,3261284,0.0,0,0
1582033230395,3261111,0.0,0,0
1582033230495,3260874,0.0,0,0
1582033230596,3260618,0.0,0,0
1582033230695,3258929,0.0,0,0
1582033230795,3257649,0.0,0,0
1582033230896,3257246,0.0,0,0
1582033230996,3256776,0.0,0,0
1582033231085,3257419,0.0,0,0
1582033231187,3256444,0.0,0,0
1582033231285,3256172,0.0,0,0
1582033231385,3256901,0.0,0,0
1582033231486,3257307,0.0,0,0
1582033231586,3257975,0.0,0,0
1582033231686,3256940,0.0,0,0
1582033231786,3255816,0.0,0,0
1582033231886,3255726,0.0,0,0
1582033231986,3256183,0.0,0,0
1582033232087,3256589,0.0,0,0
1582033232186,3255825,0.0,0,0
1582033232297,3254887,0.0,0,0
1582033232387,3255252,0.0,0,0
1582033232487,3256052,0.0,0,0
1582033232586,3256950,0.0,0,0
1582033232687,3256924,0.0,0,0
1582033232786,3255912,0.0,0,0
1582033232897,3255789,0.0,0,0
1582033232997,3256450,0.0,0,0
1582033233097,3257854,0.0,0,0
1582033233199,3259078,0.0,0,0
1582033233298,3258712,0.0,0,0
1582033233397,3258606,0.0,0,0
1582033233497,3258809,0.0,0,0
1582033233598,3258880,0.0,0,0
1582033233698,3258896,0.0,0,0
1582033233797,3258051,0.0,0,0
1582033233898,3256736,0.0,0,0
1582033233997,3257170,0.0,0,0
1582033234098,3258410,0.0,0,0
1582033234198,3260155,0.0,0,0
1582033234298,3261709,0.0,0,0
1582033234398,3261285,0.0,0,0
1582033234498,3260974,0.0,0,0
1582033234598,3261606,0.0,0,0
1582033234698,3262175,0.0,0,0
1582033234799,3263398,0.0,0,0
1582033234898,3263273,0.0,0,0
1582033234998,3262887,0.0,0,0
1582033235099,3263848,0.0,2,0
1582033235198,3264922,0.0,2,0
1582033235299,3265986,0.0,2,0
1582033235399,3266564,0.0,2,0
1582033235498,3265737,0.0,2,0
1582033235599,3265249,0.0,2,0
1582033235699,3265357,0.0,2,0
1582033235798,3265586,0.0,2,0
1582033235899,3266556,0.0,2,0
1582033235999,3266025,0.0,2,0
1582033236089,3265434,0.0,2,0
1582033236189,3265729,0.0,2,0
1582033236289,3266133,0.0,2,0
1582033236389,3266814,0.0,2,0
1582033236489,3266882,0.0,2,0
1582033236590,3266136,0.0,2,0
1582033236689,3266589,0.0,2,0
1582033236789,3267135,0.0,2,0
1582033236890,3267653,0.0,2,0
1582033236989,3268489,0.0,2,0
1582033237089,3267909,0.0,2,0
1582033237190,3267545,0.0,2,0
1582033237289,3267967,0.0,2,0
1582033237389,3268489,0.0,2,0
1582033237490,3269521,0.0,2,0
1582033237590,3269295,0.0,2,0
1582033237690,3268504,0.0,2,0
1582033237800,3268504,0.0,2,0
1582033237900,3268729,0.0,2,0
1582033238000,3269175,0.0,2,0
1582033238101,3269080,0.0,2,0
1582033238201,3269109,0.0,2,0
1582033238300,3269974,0.0,2,0
1582033238401,3270753,0.0,2,0
1582033238500,3271750,0.0,2,0
1582033238601,3271615,0.0,2,0
1582033238701,3270424,0.0,2,0
1582033238800,3269771,0.0,2,0
1582033238901,3269555,0.0,2,0
1582033239001,3269658,0.0,2,0
1582033239101,3269632,0.0,2,0
1582033239201,3268511,0.0,2,0
1582033239302,3267872,0.0,2,0
1582033239401,3267965,0.0,2,0
1582033239501,3267992,0.0,2,0
1582033239602,3268164,0.0,2,0
1582033239701,3267015,0.0,2,0
1582033239801,3266143,0.0,2,0
1582033239902,3266007,0.0,2,0
1582033240001,3265759,0.0,2,0
1582033240101,3265942,0.0,2,0
1582033240202,3264576,0.0,2,0
1582033240301,3263236,0.0,2,0
1582033240402,3262659,0.0,2,0
1582033240502,3262319,0.0,2,0
1582033240602,3262133,0.0,2,0
1582033240702,3260383,0.0,2,0
1582033240802,3258542,0.0,2,0
1582033240902,3257227,0.0,2,0
1582033241002,3256258,0.0,2,0
1582033241093,3255866,0.0,2,0
1582033241193,3253876,0.0,2,0
1582033241292,3251444,0.0,2,0
1582033241393,3249993,0.0,2,0
1582033241492,3249311,0.0,2,0
1582033241592,3248832,0.0,2,0
1582033241693,3248011,0.0,2,0
1582033241792,3245817,0.0,2,0
1582033241892,3244619,0.0,2,0
1582033241993,3244173,0.0,2,0
1582033242103,3244219,0.0,2,0
1582033242203,3244131,0.0,2,0
1582033242303,3242425,0.0,2,0
1582033242403,3241604,0.0,2,0
1582033242503,3242046,0.0,2,0
1582033242604,3242454,0.0,2,0
1582033242703,3242881,0.0,2,0
1582033242803,3240763,0.0,2,0
1582033242904,3238772,0.0,2,0
1582033242993,3238430,0.0,2,0
1582033243103,3238189,0.0,2,0
1582033243204,3238584,0.0,2,0
1582033243304,3237040,0.0,2,0
1582033243404,3235127,0.0,2,0
1582033243504,3234615,0.0,2,0
1582033243604,3234530,0.0,2,0
1582033243704,3234847,0.0,2,0
1582033243804,3234451,0.0,2,0
1582033243904,3233012,0.0,2,0
1582033244004,3232563,0.0,2,0
1582033244105,3233451,0.0,2,0
1582033244204,3234243,0.0,2,0
1582033244304,3235320,0.0,2,0
1582033244405,3234668,0.0,2,0
1582033244504,3234648,0.0,2,0
1582033244605,3236203,0.0,2,0
1582033244706,3238101,0.0,2,0
1582033244805,3240336,0.0,2,0
1582033244905,3240523,0.0,2,0
1582033245005,3240373,0.0,2,0
1582033245105,3240944,0.0,2,0
1582033245205,3241830,0.0,2,0
1582033245306,3243085,0.0,2,0
1582033245405,3244364,0.0,2,0
1582033245505,3245081,0.0,2,0
1582033245606,3246757,0.0,2,0
1582033245705,3248495,0.0,2,0
1582033245805,3250061,0.0,2,0
1582033245906,3251132,0.0,2,0
1582033246006,3251062,0.0,2,0
1582033246095,3251206,0.0,2,0
1582033246196,3252045,0.0,2,0
1582033246295,3252960,0.0,2,0
1582033246395,3253901,0.0,2,0
1582033246498,3254195,0.0,2,0
1582033246596,3253936,0.0,2,0
1582033246696,3254469,0.0,2,0
1582033246798,3255230,0.0,2,0
1582033246896,3256049,0.0,2,0
1582033246996,3256420,0.0,2,0
1582033247096,3256181,0.0,2,0
1582033247198,3256151,0.0,2,0
1582033247307,3256841,0.0,2,0
1582033247397,3257581,0.0,2,0
1582033247496,3258403,0.0,2,0
1582033247597,3258174,0.0,2,0
1582033247697,3258017,0.0,2,0
1582033247796,3258467,0.0,2,0
1582033247897,3259321,0.0,2,0
1582033247997,3260129,0.0,2,0
1582033248107,3260503,0.0,2,0
1582033248197,3260668,0.0,2,0
1582033248298,3261009,0.0,2,0
1582033248397,3261707,0.0,2,0
1582033248498,3262573,0.0,2,0
1582033248598,3263376,0.0,2,0
1582033248697,3263495,0.0,2,0
1582033248797,3263854,0.0,2,0
1582033248898,3264318,0.0,2,0
1582033248997,3264707,0.0,2,0
1582033249097,3265322,0.0,2,0
1582033249198,3264808,0.0,2,0
1582033249298,3264410,0.0,2,0
1582033249397,3264258,0.0,2,0
1582033249498,3264250,0.0,2,0
1582033249598,3264263,0.0,2,0
1582033249698,3263652,0.0,2,0
1582033249798,3262320,0.0,2,0
1582033249908,3261665,0.0,2,0
1582033249998,3261444,0.0,2,0
1582033250108,3261243,0.0,2,0
1582033250208,3261128,0.0,2,0
1582033250308,3260039,0.0,2,0
1582033250409,3259116,0.0,2,0
1582033250508,3259106,0.0,2,0
1582033250609,3258967,0.0,2,0
1582033250699,3259524,0.0,2,0
1582033250798,3259532,0.0,2,0
1582033250898,3259162,0.0,2,0
1582033250999,3259409,0.0,2,0
1582033251099,3260122,0.0,2,0
1582033251199,3260862,0.0,2,0
1582033251299,3261537,0.0,2,0
1582033251399,3261273,0.0,2,0
1582033251499,3261495,0.0,2,0
1582033251600,3261807,0.0,2,0
1582033251699,3261931,0.0,2,0
1582033251799,3261976,0.0,2,0
1582033251900,3261145,0.0,2,0
1582033251999,3260123,0.0,2,0
1582033252099,3259651,0.0,2,0
1582033252200,3259492,0.0,2,0
1582033252299,3259687,0.0,2,0
1582033252399,3259034,0.0,2,0
1582033252500,3258608,0.0,2,0
1582033252601,3258640,0.0,2,0
1582033252701,3258795,0.0,2,0
1582033252801,3259671,0.0,2,0
1582033252901,3259245,0.0,2,0
1582033253001,3259399,0.0,2,0
1582033253101,3259935,0.0,2,0
1582033253201,3261103,0.0,2,0
1582033253301,3262686,0.0,2,0
1582033253401,3263268,0.0,2,0
1582033253500,3262910,0.0,2,0
1582033253601,3262768,0.0,2,0
1582033253701,3263123,0.0,2,0
1582033253810,3263507,0.0,2,0
1582033253911,3263112,0.0,2,0
1582033254012,3262742,0.0,2,0
1582033254111,3263010,0.0,2,0
1582033254211,3263571,0.0,2,0
1582033254311,3263827,0.0,2,0
1582033254411,3264155,0.0,2,0
1582033254511,3263225,0.0,2,0
1582033254612,3262725,0.0,2,0
1582033254711,3262495,0.0,2,0
1582033254811,3262604,0.0,2,0
1582033254912,3262442,0.0,2,0
1582033255011,3262425,0.0,2,0
1582033255111,3261552,0.0,2,0
1582033255212,3260718,0.0,2,0
1582033255312,3260406,0.0,2,0
1582033255412,3260122,0.0,2,0
1582033255512,3259916,0.0,2,0
1582033255612,3260147,0.0,2,0
1582033255712,3259112,0.0,2,0
1582033255812,3258264,0.0,2,0
1582033255916,3257829,0.0,2,0
1582033256002,3257869,0.0,2,0
1582033256102,3257842,0.0,2,0
1582033256202,3257578,0.0,2,0
1582033256302,3256515,0.0,2,0
1582033256403,3256167,0.0,2,0
1582033256502,3256021,0.0,2,0
1582033256603,3256015,0.0,2,0
1582033256703,3256282,0.0,2,0
1582033256802,3255526,0.0,2,0
1582033256902,3254666,0.0,2,0
1582033257003,3254102,0.0,2,0
1582033257102,3253922,0.0,2,0
1582033257203,3254141,0.0,2,0
1582033257303,3253990,0.0,2,0
1582033257403,3252715,0.0,2,0
1582033257503,3251881,0.0,2,0
1582033257603,3251772,0.0,2,0
1582033257703,3251623,0.0,2,0
1582033257803,3252170,0.0,2,0
1582033257904,3251478,0.0,2,0
1582033258004,3250475,0.0,2,0
1582033258103,3250218,0.0,2,0
1582033258204,3249936,0.0,2,0
1582033258303,3249872,0.0,2,0
1582033258403,3250213,0.0,2,0
1582033258504,3249210,0.0,2,0
1582033258614,3248525,0.0,2,0
1582033258714,3248625,0.0,2,0
1582033258815,3248572,0.0,2,0
1582033258914,3248915,0.0,2,0
1582033259014,3247984,0.0,2,0
1582033259115,3246944,0.0,2,0
1582033259215,3246323,0.0,2,0
1582033259315,3246010,0.0,2,0
1582033259415,3245663,0.0,2,0
1582033259514,3245237,0.0,2,0
1582033259615,3243889,0.0,2,0
1582033259715,3242724,0.0,2,0
1582033259815,3242406,0.0,2,0
1582033259915,3241998,0.0,2,0
1582033260016,3241872,0.0,2,0
1582033260115,3241178,0.0,2,0
1582033260215,3240305,0.0,2,0
1582033260315,3240075,0.0,2,0
1582033260415,3239851,0.0,2,0
1582033260515,3240028,0.0,2,0
1582033260616,3240321,0.0,2,0
1582033260715,3239703,0.0,2,0
1582033260815,3239759,0.0,2,0
1582033260916,3239876,0.0,2,0
1582033261015,3240015,0.0,2,0
1582033261105,3240297,0.0,2,0
1582033261208,3239848,0.0,2,0
1582033261305,3239397,0.0,2,0
1582033261407,3238921,0.0,2,0
1582033261506,3238703,0.0,2,0
1582033261606,3238629,0.0,2,0
1582033261706,3238500,0.0,2,0
1582033261806,3237680,0.0,2,0
1582033261906,3236672,0.0,2,0
1582033262006,3236219,0.0,2,0
1582033262107,3235771,0.0,2,0
1582033262207,3235528,0.0,2,0
1582033262316,3235441,0.0,2,0
1582033262407,3234750,0.0,2,0
1582033262507,3234087,0.0,2,0
1582033262607,3233862,0.0,2,0
1582033262707,3233703,0.0,2,0
1582033262806,3234003,0.0,2,0
1582033262907,3234217,0.0,2,0
1582033263007,3233762,0.0,2,0
1582033263107,3234251,0.0,2,0
1582033263209,3234935,0.0,2,0
1582033263307,3235681,0.0,2,0
1582033263407,3236365,0.0,2,0
1582033263507,3236695,0.0,2,0
1582033263618,3237136,0.0,2,0
1582033263717,3237683,0.0,2,0
1582033263817,3238068,0.0,2,0
1582033263918,3238379,0.0,2,0
1582033264017,3238248,0.0,2,0
1582033264118,3237076,0.0,2,0
1582033264218,3236009,0.0,2,0
1582033264318,3235478,0.0,2,0
1582033264418,3234983,0.0,2,0
1582033264518,3234478,0.0,2,0
1582033264618,3233606,0.0,2,0
1582033264718,3232039,0.0,2,0
1582033264819,3231003,0.0,2,0
1582033264918,3230345,0.0,2,0
1582033265018,3229986,0.0,2,0
1582033265119,3229924,0.0,2,0
1582033265218,3228681,0.0,2,0
1582033265319,3227953,0.0,2,0
1582033265419,3227670,0.0,2,0
1582033265518,3227657,0.0,2,0
1582033265619,3227932,0.0,2,0
1582033265719,3228207,0.0,2,0
1582033265819,3228652,0.0,2,0
1582033265919,3229547,0.0,2,0
1582033266019,3230029,0.0,2,0
1582033266109,3230204,0.0,2,0
1582033266209,3230049,0.0,2,0
1582033266309,3228749,0.0,2,0
1582033266409,3227953,0.0,2,0
1582033266509,3227484,0.0,2,0
1582033266610,3227066,0.0,2,0
1582033266709,3226577,0.0,2,0
1582033266809,3225396,0.0,2,0
1582033266910,3224061,0.0,2,0
1582033267009,3223082,0.0,2,0
1582033267109,3222370,0.0,2,0
1582033267210,3222375,0.0,2,0
1582033267310,3222274,0.0,2,0
1582033267409,3221838,0.0,2,0
1582033267510,3221617,0.0,2,0
1582033267610,3221462,0.0,2,0
1582033267710,3221648,0.0,2,0
1582033267810,3221291,0.0,2,0
1582033267910,3220178,0.0,2,0
1582033268010,3219548,0.0,2,0
1582033268110,3219255,0.0,2,0
1582033268210,3218905,0.0,2,0
1582033268310,3218630,0.0,2,0
1582033268411,3217798,0.0,2,0
1582033268510,3217166,0.0,2,0
1582033268621,3217611,0.0,2,0
1582033268721,3218451,0.0,2,0
1582033268821,3219496,0.0,2,0
1582033268921,3219270,0.0,2,0
1582033269021,3218750,0.0,2,0
1582033269121,3218678,0.0,2,0
1582033269221,3219768,0.0,2,0
1582033269322,3220491,0.0,2,0
1582033269421,3220654,0.0,2,0
1582033269521,3220219,0.0,2,0
1582033269622,3220124,0.0,2,0
1582033269721,3219831,0.0,2,0
1582033269821,3219737,0.0,2,0
1582033269922,3219055,0.0,2,0
1582033270021,3217579,0.0,2,0
1582033270121,3216548,0.0,2,0
1582033270222,3215809,0.0,2,0
1582033270322,3215361,0.0,2,0
1582033270422,3215454,0.0,2,0
1582033270522,3214412,0.0,2,0
1582033270622,3213348,0.0,2,0
1582033270722,3212910,0.0,2,0
1582033270822,3212405,0.0,2,0
1582033270922,3212539,0.0,2,0
1582033271022,3212370,0.0,2,0
1582033271113,3211472,0.0,2,0
1582033271213,3210712,0.0,2,0
1582033271312,3210848,0.0,2,0
1582033271413,3211051,0.0,2,0
1582033271512,3211597,0.0,2,0
1582033271612,3211298,0.0,2,0
1582033271713,3210598,0.0,2,0
1582033271823,3210824,0.0,2,0
1582033271912,3211282,0.0,2,0
1582033272023,3211987,0.0,2,0
1582033272123,3213120,0.0,2,0
1582033272223,3213734,0.0,2,0
1582033272324,3214723,0.0,2,0
1582033272423,3215741,0.0,2,0
1582033272523,3216625,0.0,2,0
1582033272624,3217423,0.0,2,0
1582033272723,3217491,0.0,2,0
1582033272823,3218895,0.0,2,0
1582033272924,3221264,0.0,2,0
1582033273023,3223510,0.0,2,0
1582033273123,3225477,0.0,2,0
1582033273224,3225697,0.0,2,0
1582033273324,3225137,0.0,2,0
1582033273424,3225488,0.0,2,0
1582033273524,3226142,0.0,2,0
1582033273624,3226948,0.0,2,0
1582033273724,3227404,0.0,2,0
1582033273824,3227448,0.0,2,0
1582033273924,3227613,0.0,2,0
1582033274024,3227890,0.0,2,0
1582033274125,3227994,0.0,2,0
1582033274224,3228434,0.0,2,0
1582033274324,3227745,0.0,2,0
1582033274425,3227229,0.0,2,0
1582033274525,3226653,0.0,2,0
1582033274625,3226462,0.0,2,0
1582033274725,3226394,0.0,2,0
1582033274825,3226425,0.0,2,0
1582033274925,3225771,0.0,2,0
1582033275025,3225448,0.0,2,0
1582033275125,3225280,0.0,2,0
1582033275225,3225560,0.0,2,0
1582033275326,3226360,0.0,2,0
1582033275425,3226026,0.0,2,0
1582033275525,3225953,0.0,2,0
1582033275626,3226128,0.0,2,0
1582033275725,3226232,0.0,2,0
1582033275825,3226943,0.0,2,0
1582033275926,3226875,0.0,2,0
1582033276025,3226629,0.0,2,0
1582033276115,3226482,0.0,2,0
1582033276216,3226469,0.0,2,0
1582033276315,3226814,0.0,2,0
1582033276415,3226766,0.0,2,0
1582033276518,3226379,0.0,2,0
1582033276616,3225803,0.0,2,0
1582033276716,3225675,0.0,2,0
1582033276816,3225450,0.0,2,0
1582033276916,3225394,0.0,2,0
1582033277016,3224766,0.0,2,0
1582033277116,3224085,0.0,2,0
1582033277219,3223810,0.0,2,0
1582033277318,3223380,0.0,2,0
1582033277417,3223337,0.0,2,0
1582033277516,3223024,0.0,2,0
1582033277617,3222230,0.0,2,0
1582033277717,3221932,0.0,2,0
1582033277816,3222039,0.0,2,0
1582033277917,3222079,0.0,2,0
1582033278018,3222269,0.0,2,0
1582033278127,3221739,0.0,2,0
1582033278217,3221657,0.0,2,0
1582033278317,3221908,0.0,2,0
1582033278417,3222576,0.0,2,0
1582033278517,3223108,0.0,2,0
1582033278618,3223399,0.0,2,0
1582033278717,3224371,0.0,2,0
1582033278817,3226119,0.0,2,0
1582033278918,3228512,0.0,2,0
1582033279017,3230800,0.0,2,0
1582033279117,3231206,0.0,2,0
1582033279218,3231198,0.0,2,0
1582033279318,3231266,0.0,2,0
1582033279417,3231199,0.0,2,0
1582033279518,3231165,0.0,2,0
1582033279618,3230167,0.0,2,0
1582033279718,3229405,0.0,2,0
1582033279829,3228843,0.0,2,0
1582033279928,3228554,0.0,2,0
1582033280028,3228498,0.0,2,0
1582033280129,3227465,0.0,2,0
1582033280228,3226506,0.0,2,0
1582033280328,3226200,0.0,2,0
1582033280429,3226139,0.0,2,0
1582033280528,3226274,0.0,2,0
1582033280629,3226299,0.0,2,0
1582033280729,3225835,0.0,2,0
1582033280818,3225218,0.0,2,0
1582033280918,3225298,0.0,2,0
1582033281019,3225682,0.0,2,0
1582033281119,3226237,0.0,2,0
1582033281219,3226414,0.0,2,0
1582033281319,3226412,0.0,2,0
1582033281419,3226381,0.0,2,0
1582033281519,3226505,0.0,2,0
1582033281620,3226746,0.0,2,0
1582033281719,3226539,0.0,2,0
1582033281819,3225918,0.0,2,0
1582033281920,3225550,0.0,2,0
1582033282019,3225306,0.0,2,0
1582033282119,3225118,0.0,2,0
1582033282220,3224846,0.0,2,0
1582033282319,3224076,0.0,2,0
1582033282419,3223097,0.0,2,0
1582033282520,3222667,0.0,2,0
1582033282620,3222241,0.0,2,0
1582033282720,3222249,0.0,2,0
1582033282831,3221895,0.0,2,0
1582033282930,3221409,0.0,2,0
1582033283030,3221120,0.0,2,0
1582033283131,3221037,0.0,2,0
1582033283230,3221562,0.0,2,0
1582033283331,3222052,0.0,2,0
1582033283431,3222041,0.0,2,0
1582033283530,3222299,0.0,2,0
1582033283631,3222839,0.0,2,0
1582033283731,3223462,0.0,2,0
1582033283831,3224230,0.0,2,0
1582033283931,3224241,0.0,2,0
1582033284031,3224045,0.0,2,0
1582033284131,3224274,0.0,2,0
1582033284231,3224517,0.0,2,0
1582033284331,3224876,0.0,2,0
1582033284431,3224598,0.0,2,0
1582033284531,3223845,0.0,2,0
1582033284632,3223447,0.0,2,0
1582033284732,3222981,0.0,2,0
1582033284831,3222873,0.0,2,0
1582033284932,3222844,0.0,2,0
1582033285031,3221836,0.0,2,0
1582033285132,3221095,0.0,2,0
1582033285234,3220663,0.0,2,0
1582033285332,3220456,0.0,2,0
1582033285432,3220516,0.0,2,0
1582033285532,3220135,0.0,2,0
1582033285632,3219569,0.0,2,0
1582033285732,3219281,0.0,2,0
1582033285832,3219184,0.0,2,0
1582033285932,3219976,0.0,2,0
1582033286032,3220236,0.0,2,0
