timestamp,ppg,label,stage,hand
1581955594094,2414223,0,0,0
1581955594193,2413670,0,0,0
1581955594292,2413465,0,0,0
1581955594382,2413338,0,0,0
1581955594482,2413417,0,0,0
1581955594583,2413239,0,0,0
1581955594683,2412808,0,0,0
1581955594782,2412265,0,0,0
1581955594882,2412011,0,0,0
1581955594983,2411708,0,0,0
1581955595083,2411695,0,0,0
1581955595183,2411669,0,0,0
1581955595283,2411681,0,0,0
1581955595383,2411388,0,0,0
1581955595483,2411097,0,0,0
1581955595583,2410747,0,0,0
1581955595683,2410640,0,0,0
1581955595783,2410550,0,0,0
1581955595883,2410689,0,0,0
1581955595983,2410705,0,0,0
1581955596083,2410569,0,0,0
1581955596183,2410427,0,0,0
1581955596294,2410209,0,0,0
1581955596394,2410161,0,0,0
1581955596494,2410253,0,0,0
1581955596595,2410345,0,0,0
1581955596684,2410338,0,0,0
1581955596784,2410237,0,0,0
1581955596884,2409955,0,0,0
1581955596984,2409729,0,0,0
1581955597084,2409771,0,0,0
1581955597185,2409731,0,0,0
1581955597284,2409631,0,0,0
1581955597384,2409968,0,0,0
1581955597485,2409755,0,0,0
1581955597585,2409340,0,0,0
1581955597685,2409085,0,0,0
1581955597785,2408524,0,0,0
1581955597885,2407832,0,0,0
1581955597985,2408438,0,0,0
1581955598085,2409562,0,0,0
1581955598185,2409246,0,0,0
1581955598295,2409702,0,0,0
1581955598396,2409957,0,0,0
1581955598497,2410193,0,0,0
1581955598597,2409677,0,0,0
1581955598697,2410866,0,0,0
1581955598797,2413026,0,0,0
1581955598897,2413271,0,0,0
1581955598988,2412335,0,0,0
1581955599088,2411641,0,0,0
1581955599187,2411632,0,0,0
1581955599287,2411654,0,0,0
1581955599387,2412105,0,0,0
1581955599487,2412910,0,0,0
1581955599587,2413692,0,0,0
1581955599689,2414014,0,0,0
1581955599787,2414402,0,0,0
1581955599887,2414667,0,0,0
1581955599987,2414771,0,0,0
1581955600087,2414843,0,0,0
1581955600187,2414732,0,0,0
1581955600288,2414539,0,0,0
1581955600388,2414562,0,0,0
1581955600488,2414584,0,0,0
1581955600590,2414796,0,0,0
1581955600688,2414746,0,0,0
1581955600788,2414387,0,0,0
1581955600888,2414159,0,0,0
1581955600988,2414183,0,0,0
1581955601088,2414019,0,0,0
1581955601188,2414238,0,0,0
1581955601298,2414229,0,0,0
1581955601398,2413887,0,0,0
1581955601499,2413735,0,0,0
1581955601598,2413654,0,0,0
1581955601700,2413563,0,0,0
1581955601799,2413718,0,0,0
1581955601899,2413893,0,0,0
1581955601999,2413962,0,0,0
1581955602099,2413731,0,0,0
1581955602199,2413795,0,0,0
1581955602299,2413791,0,0,0
1581955602399,2413795,0,0,0
1581955602499,2414069,0,0,0
1581955602599,2414179,0,0,0
1581955602699,2414311,0,0,0
1581955602799,2414191,0,0,0
1581955602899,2414113,0,0,0
1581955603000,2414198,0,0,0
1581955603100,2414305,0,0,0
1581955603200,2414457,0,0,0
1581955603300,2414714,0,0,0
1581955603400,2415002,0,0,0
1581955603501,2414859,0,0,0
1581955603600,2414710,0,0,0
1581955603700,2414805,0,0,0
1581955603800,2414929,0,0,0
1581955603900,2415079,0,0,0
1581955604001,2415462,0,0,0
1581955604100,2415527,0,0,0
1581955604200,2415743,0,0,0
1581955604300,2415670,0,0,0
1581955604390,2415596,0,0,0
1581955604490,2415704,0,0,0
1581955604591,2415857,0,0,0
1581955604690,2416076,0,0,0
1581955604790,2416317,0,0,0
1581955604890,2416784,0,0,0
1581955604991,2416800,0,0,0
1581955605091,2416744,0,0,0
1581955605191,2416942,0,0,0
1581955605291,2417112,0,0,0
1581955605391,2417199,0,0,0
1581955605491,2417421,0,0,0
1581955605591,2417724,0,0,0
1581955605691,2417943,0,0,0
1581955605790,2417884,0,0,0
1581955605890,2418055,0,0,0
1581955605990,2418200,0,0,0
1581955606090,2418431,0,0,0
1581955606190,2418733,0,0,0
1581955606290,2418757,0,0,0
1581955606403,2418953,0,0,0
1581955606491,2418951,0,0,0
1581955606590,2419011,0,0,0
1581955606691,2419354,0,0,0
1581955606790,2419438,0,0,0
1581955606890,2419750,0,0,0
1581955606991,2419564,0,0,0
1581955607091,2419627,0,0,0
1581955607191,2419677,0,0,0
1581955607291,2419841,0,0,0
1581955607391,2419928,0,0,0
1581955607491,2420155,0,0,0
1581955607591,2420257,0,0,0
1581955607702,2420224,0,0,0
1581955607801,2420424,0,0,0
1581955607891,2420519,0,0,0
1581955608002,2420602,0,0,0
1581955608102,2420819,0,0,0
1581955608201,2421029,0,0,0
1581955608302,2421140,0,0,0
1581955608402,2421179,0,0,0
1581955608502,2421380,0,0,0
1581955608602,2421266,0,0,0
1581955608702,2421496,0,0,0
1581955608802,2421752,0,0,0
1581955608902,2421848,0,0,0
1581955609002,2421966,0,0,0
1581955609102,2421996,0,0,0
1581955609202,2422017,0,0,0
1581955609302,2422024,0,0,0
1581955609392,2422231,0,0,0
1581955609492,2422581,0,0,0
1581955609592,2422585,0,0,0
1581955609692,2422556,0,0,0
1581955609793,2422587,0,0,0
1581955609892,2422556,0,0,0
1581955609993,2422896,0,0,0
1581955610093,2423044,0,1,0
1581955610193,2423252,0,1,0
1581955610293,2423468,0,1,0
1581955610393,2423427,0,1,0
1581955610493,2423401,0,1,0
1581955610593,2423587,0,1,0
1581955610693,2423649,0,1,0
1581955610793,2423896,0,1,0
1581955610893,2424020,0,1,0
1581955610994,2424157,0,1,0
1581955611093,2424345,0,1,0
1581955611203,2424310,0,1,0
1581955611304,2424463,0,1,0
1581955611404,2424432,0,1,0
1581955611504,2424668,0,1,0
1581955611604,2424601,0,1,0
1581955611704,2424007,0,1,0
1581955611805,2423031,0,1,0
1581955611905,2422033,0,1,0
1581955612005,2421074,0,1,0
1581955612105,2421012,0,1,0
1581955612205,2422178,0,1,0
1581955612305,2424156,0,1,0
1581955612405,2426065,0,1,0
1581955612505,2426497,0,1,0
1581955612605,2426782,0,1,0
1581955612705,2426873,0,1,0
1581955612806,2426281,0,1,0
1581955612906,2425782,0,1,0
1581955613007,2426511,0,1,0
1581955613106,2426701,0,1,0
1581955613206,2426918,0,1,0
1581955613306,2426679,0,1,0
1581955613406,2427039,0,1,0
1581955613507,2427101,0,1,0
1581955613606,2427241,0,1,0
1581955613708,2427609,0,1,0
1581955613807,2427766,0,1,0
1581955613907,2427844,0,1,0
1581955614007,2428043,0,1,0
1581955614107,2428118,0,1,0
1581955614207,2428319,0,1,0
1581955614307,2428511,0,1,0
1581955614397,2428778,0,1,0
1581955614497,2428996,0,1,0
1581955614599,2429206,0,1,0
1581955614697,2429123,0,1,0
1581955614797,2429419,0,1,0
1581955614897,2429491,0,1,0
1581955614998,2429666,0,1,0
1581955615098,2429977,0,1,0
1581955615198,2430066,0,1,0
1581955615298,2430154,0,1,0
1581955615398,2430268,0,1,0
1581955615498,2430239,0,1,0
1581955615598,2430403,0,1,0
1581955615698,2430491,0,1,0
1581955615798,2430794,0,1,0
1581955615898,2430893,0,1,0
1581955615998,2430985,0,1,0
1581955616098,2431084,0,1,0
1581955616208,2431042,0,1,0
1581955616308,2431130,0,1,0
1581955616408,2431207,0,1,0
1581955616509,2431345,0,1,0
1581955616610,2431603,0,1,0
1581955616709,2431658,0,1,0
1581955616809,2431702,0,1,0
1581955616909,2431787,0,1,0
1581955617009,2431655,0,1,0
1581955617109,2431988,0,1,0
1581955617211,2431923,0,1,0
1581955617310,2432114,0,1,0
1581955617410,2432348,0,1,0
1581955617510,2432284,0,1,0
1581955617610,2432358,0,1,0
1581955617710,2432363,0,1,0
1581955617810,2432423,0,1,0
1581955617899,2432471,0,1,0
1581955617999,2432721,0,1,0
1581955618098,2432637,0,1,0
1581955618198,2432691,0,1,0
1581955618298,2432622,0,1,0
1581955618398,2432734,0,1,0
1581955618500,2432857,0,1,0
1581955618598,2433018,0,1,0
1581955618698,2433052,0,1,0
1581955618798,2433164,0,1,0
1581955618898,2433174,0,1,0
1581955618999,2433113,0,1,0
1581955619099,2433271,0,1,0
1581955619199,2433252,0,1,0
1581955619299,2433334,0,1,0
1581955619400,2433582,0,1,0
1581955619500,2433638,0,1,0
1581955619600,2433650,0,1,0
1581955619700,2433575,0,1,0
1581955619801,2433653,0,1,0
1581955619899,2433840,0,1,0
1581955620000,2433859,0,1,0
1581955620100,2434113,0,1,0
1581955620200,2434130,0,1,0
1581955620300,2433949,0,1,0
1581955620401,2434002,0,1,0
1581955620501,2434025,0,1,0
1581955620601,2434177,0,1,0
1581955620701,2434315,0,1,0
1581955620801,2434423,0,1,0
1581955620901,2434411,0,1,0
1581955621002,2434407,0,1,0
1581955621101,2434347,0,1,0
1581955621212,2434361,0,1,0
1581955621312,2434530,0,1,0
1581955621412,2434657,0,1,0
1581955621512,2434787,0,1,0
1581955621612,2434890,0,1,0
1581955621712,2435031,0,1,0
1581955621812,2434994,0,1,0
1581955621912,2435170,0,1,0
1581955622012,2435236,0,1,0
1581955622112,2435352,0,1,0
1581955622213,2435437,0,1,0
1581955622312,2435662,0,1,0
1581955622412,2435570,0,1,0
1581955622513,2435765,0,1,0
1581955622613,2435805,0,1,0
1581955622713,2435643,0,1,0
1581955622813,2435781,0,1,0
1581955622913,2435960,0,1,0
1581955623013,2436049,0,1,0
1581955623113,2436116,0,1,0
1581955623213,2436192,0,1,0
1581955623313,2436524,0,1,0
1581955623413,2436615,0,1,0
1581955623513,2436511,0,1,0
1581955623613,2436680,0,1,0
1581955623714,2436807,0,1,0
1581955623813,2437017,0,1,0
1581955623912,2437145,0,1,0
1581955624012,2437321,0,1,0
1581955624112,2437298,0,1,0
1581955624212,2437312,0,1,0
1581955624312,2437563,0,1,0
1581955624402,2437590,0,1,0
1581955624502,2437730,0,1,0
1581955624602,2438005,0,1,0
1581955624703,2438125,0,1,0
1581955624802,2438197,0,1,0
1581955624902,2438331,0,1,0
1581955625003,2438355,0,1,0
1581955625103,2438394,0,1,0
1581955625203,2438458,0,1,0
1581955625303,2438739,0,1,0
1581955625403,2438819,0,1,0
1581955625503,2438950,0,1,0
1581955625603,2438898,0,1,0
1581955625703,2439021,0,1,0
1581955625803,2438908,0,1,0
1581955625903,2439097,0,1,0
1581955626003,2439215,0,1,0
1581955626103,2439220,0,1,0
1581955626203,2439319,0,1,0
1581955626313,2439365,0,1,0
1581955626414,2439201,0,1,0
1581955626514,2439220,0,1,0
1581955626615,2439261,0,1,0
1581955626714,2439351,0,1,0
1581955626814,2439335,0,1,0
1581955626914,2439416,0,1,0
1581955627014,2439432,0,1,0
1581955627115,2439393,0,1,0
1581955627215,2439264,0,1,0
1581955627314,2439241,0,1,0
1581955627414,2439142,0,1,0
1581955627514,2439070,0,1,0
1581955627615,2439154,0,1,0
1581955627715,2438997,0,1,0
1581955627814,2438909,0,1,0
1581955627915,2438705,0,1,0
1581955628015,2438529,0,1,0
1581955628115,2438280,0,1,0
1581955628215,2438325,0,1,0
1581955628315,2438131,0,1,0
1581955628415,2437886,0,1,0
1581955628515,2437487,0,1,0
1581955628605,2437042,0,1,0
1581955628705,2436737,0,1,0
1581955628805,2436463,0,1,0
1581955628905,2436228,0,1,0
1581955629006,2436085,0,1,0
1581955629105,2435703,0,1,0
1581955629205,2435071,0,1,0
1581955629305,2434486,0,1,0
1581955629406,2433899,0,1,0
1581955629506,2433454,0,1,0
1581955629606,2433018,0,1,0
1581955629706,2432901,0,1,0
1581955629806,2432460,0,1,0
1581955629906,2431983,0,1,0
1581955630006,2431190,0,1,0
1581955630106,2430776,0,1,0
1581955630206,2430244,0,1,0
1581955630306,2429861,0,1,0
1581955630406,2429630,0,1,0
1581955630506,2429148,0,1,0
1581955630608,2428533,0,1,0
1581955630707,2427979,0,1,0
1581955630806,2427434,0,1,0
1581955630907,2427030,0,1,0
1581955631008,2426624,0,1,0
1581955631117,2426667,0,1,0
1581955631217,2426244,0,1,0
1581955631317,2425587,0,1,0
1581955631407,2425073,0,1,0
1581955631507,2424653,0,1,0
1581955631607,2424322,0,1,0
1581955631718,2424212,0,1,0
1581955631818,2424076,0,1,0
1581955631917,2424086,0,1,0
1581955632018,2423753,0,1,0
1581955632118,2423297,0,1,0
1581955632218,2422968,0,1,0
1581955632318,2422777,0,1,0
1581955632418,2422568,0,1,0
1581955632518,2422605,0,1,0
1581955632618,2422552,0,1,0
1581955632718,2422620,0,1,0
1581955632818,2422480,0,1,0
1581955632918,2422186,0,1,0
1581955633018,2422066,0,1,0
1581955633118,2421904,0,1,0
1581955633218,2422010,0,1,0
1581955633318,2422154,0,1,0
1581955633418,2422426,0,1,0
1581955633518,2422309,0,1,0
1581955633619,2422263,0,1,0
1581955633719,2422039,0,1,0
1581955633818,2422045,0,1,0
1581955633919,2421926,0,1,0
1581955634019,2422076,0,1,0
1581955634119,2422136,0,1,0
1581955634219,2422507,0,1,0
1581955634319,2422703,0,1,0
1581955634409,2422671,0,1,0
1581955634509,2422578,0,1,0
1581955634609,2422669,0,1,0
1581955634709,2422730,0,1,0
1581955634809,2422797,0,1,0
1581955634909,2422924,0,1,0
1581955635010,2423231,0,1,0
1581955635109,2423355,0,1,0
1581955635209,2423618,0,1,0
1581955635309,2423511,0,1,0
1581955635409,2423639,0,1,0
1581955635510,2423706,0,1,0
1581955635610,2423949,0,1,0
1581955635710,2424031,0,1,0
1581955635810,2424292,0,1,0
1581955635910,2424433,0,1,0
1581955636010,2424482,0,1,0
1581955636110,2424509,0,1,0
1581955636210,2424621,0,1,0
1581955636320,2424769,0,1,0
1581955636410,2424822,0,1,0
1581955636520,2425003,0,1,0
1581955636622,2425344,0,1,0
1581955636721,2425341,0,1,0
1581955636821,2425380,0,1,0
1581955636921,2425359,0,1,0
1581955637021,2425437,0,1,0
1581955637121,2425393,0,1,0
1581955637221,2425675,0,1,0
1581955637321,2425537,0,1,0
1581955637421,2425932,0,1,0
1581955637521,2426080,0,1,0
1581955637621,2425907,0,1,0
1581955637722,2426015,0,1,0
1581955637821,2425996,0,1,0
1581955637921,2425933,0,1,0
1581955638022,2425998,0,1,0
1581955638121,2426153,0,1,0
1581955638221,2426132,0,1,0
1581955638322,2426339,0,1,0
1581955638421,2426316,0,1,0
1581955638522,2426242,0,1,0
1581955638622,2426225,0,1,0
1581955638722,2426250,0,1,0
1581955638822,2426340,0,1,0
1581955638922,2426684,0,1,0
1581955639024,2426878,0,1,0
1581955639122,2426726,0,1,0
1581955639222,2426752,0,1,0
1581955639322,2426625,0,1,0
1581955639412,2426566,0,1,0
1581955639512,2426637,0,1,0
1581955639612,2426717,0,1,0
1581955639712,2426718,0,1,0
1581955639812,2426495,0,1,0
1581955639912,2426312,0,1,0
1581955640013,2426330,0,1,0
1581955640113,2426122,0,1,0
1581955640213,2426067,0,1,0
1581955640313,2426157,0,1,0
1581955640413,2426094,0,1,0
1581955640513,2426001,0,1,0
1581955640613,2425524,0,1,0
1581955640713,2425477,0,1,0
1581955640813,2425310,0,1,0
1581955640913,2425242,0,1,0
1581955641013,2425019,0,1,0
1581955641113,2425182,0,1,0
1581955641213,2425151,0,1,0
1581955641313,2424818,0,1,0
1581955641413,2424407,0,1,0
1581955641514,2424160,0,1,0
1581955641614,2424057,0,1,0
1581955641714,2424021,0,1,0
1581955641814,2424102,0,1,0
1581955641914,2423995,0,1,0
1581955642014,2423884,0,1,0
1581955642114,2423620,0,1,0
1581955642214,2423354,0,1,0
1581955642314,2423159,0,1,0
1581955642414,2422987,0,1,0
1581955642524,2423138,0,1,0
1581955642625,2423140,0,1,0
1581955642725,2423004,0,1,0
1581955642825,2423153,0,1,0
1581955642925,2422716,0,1,0
1581955643025,2422509,0,1,0
1581955643125,2422257,0,1,0
1581955643225,2422270,0,1,0
1581955643325,2422106,0,1,0
1581955643425,2422197,0,1,0
1581955643525,2422258,0,1,0
1581955643625,2422511,0,1,0
1581955643726,2422213,0,1,0
1581955643825,2421937,0,1,0
1581955643925,2421780,0,1,0
1581955644026,2421643,0,1,0
1581955644125,2421645,0,1,0
1581955644225,2421721,0,1,0
1581955644326,2421655,0,1,0
1581955644426,2421928,0,1,0
1581955644527,2421604,0,1,0
1581955644627,2421457,0,1,0
1581955644717,2421321,0,1,0
1581955644816,2421246,0,1,0
1581955644917,2421161,0,1,0
1581955645018,2421356,0,1,0
1581955645117,2421453,0,1,0
1581955645217,2421435,0,1,0
1581955645317,2421261,0,1,0
1581955645418,2421090,0,1,0
1581955645518,2420889,0,1,0
1581955645618,2421012,0,1,0
1581955645718,2420977,0,1,0
1581955645818,2420948,0,1,0
1581955645918,2421115,0,1,0
1581955646018,2421208,0,1,0
1581955646118,2421074,0,1,0
1581955646218,2420808,0,1,0
1581955646318,2420595,0,1,0
1581955646418,2420613,0,1,0
1581955646528,2420687,0,1,0
1581955646630,2420628,0,1,0
1581955646729,2421045,0,1,0
1581955646829,2421290,0,1,0
1581955646929,2420987,0,1,0
1581955647029,2420812,0,1,0
1581955647129,2420728,0,1,0
1581955647231,2420242,0,1,0
1581955647319,2419911,0,1,0
1581955647419,2419786,0,1,0
1581955647519,2419825,0,1,0
1581955647619,2420122,0,1,0
1581955647729,2419972,0,1,0
1581955647829,2420048,0,1,0
1581955647920,2419726,0,1,0
1581955648019,2420036,0,1,0
1581955648119,2420369,0,1,0
1581955648219,2420322,0,1,0
1581955648319,2420871,0,1,0
1581955648419,2420849,0,1,0
1581955648520,2420754,0,1,0
1581955648620,2420668,0,1,0
1581955648720,2420836,0,1,0
1581955648820,2420724,0,1,0
1581955648920,2421088,0,1,0
1581955649020,2421054,0,1,0
1581955649120,2421081,0,1,0
1581955649220,2420649,0,1,0
1581955649320,2420174,0,1,0
1581955649420,2419914,0,1,0
1581955649520,2419830,0,1,0
1581955649620,2419733,0,1,0
1581955649721,2419505,0,1,0
1581955649821,2419623,0,1,0
1581955649921,2419633,0,1,0
1581955650021,2419505,0,1,0
1581955650121,2419306,0,1,0
1581955650221,2418935,0,1,0
1581955650321,2418920,0,1,0
1581955650421,2418800,0,1,0
1581955650521,2418727,0,1,0
1581955650621,2418718,0,1,0
1581955650721,2418939,0,1,0
1581955650831,2418836,0,1,0
1581955650931,2418599,0,1,0
1581955651032,2418836,0,1,0
1581955651132,2419020,0,1,0
1581955651232,2418522,0,1,0
1581955651332,2418464,0,1,0
1581955651432,2418141,0,1,0
1581955651532,2418020,0,1,0
1581955651632,2417884,0,1,0
1581955651732,2417941,0,1,0
1581955651832,2418024,0,1,0
1581955651932,2418195,0,1,0
1581955652032,2418222,0,1,0
1581955652134,2418836,0,1,0
1581955652234,2418682,0,1,0
1581955652334,2418834,0,1,0
1581955652434,2418860,0,1,0
1581955652534,2418718,0,1,0
1581955652634,2418830,0,1,0
1581955652733,2418786,0,1,0
1581955652833,2418453,0,1,0
1581955652933,2418280,0,1,0
1581955653033,2418158,0,1,0
1581955653133,2418049,0,1,0
1581955653233,2418056,0,1,0
1581955653333,2418191,0,1,0
1581955653433,2418469,0,1,0
1581955653533,2418339,0,1,0
1581955653633,2418332,0,1,0
1581955653734,2418234,0,1,0
1581955653833,2418388,0,1,0
1581955653933,2418433,0,1,0
1581955654034,2418342,0,1,0
1581955654133,2418056,0,1,0
1581955654233,2418130,0,1,0
1581955654324,2418103,0,1,0
1581955654424,2418255,0,1,0
1581955654524,2418477,0,1,0
1581955654624,2418607,0,1,0
1581955654724,2418567,0,1,0
1581955654824,2418402,0,1,0
1581955654924,2418014,0,1,0
1581955655024,2418131,0,1,0
1581955655124,2418516,0,1,0
1581955655224,2418666,0,1,0
1581955655324,2418767,0,1,0
1581955655424,2418950,0,1,0
1581955655524,2418814,0,1,0
1581955655625,2418771,0,1,0
1581955655725,2418873,0,1,0
1581955655825,2418968,0,1,0
1581955655925,2418623,0,1,0
1581955656025,2418140,0,1,0
1581955656125,2418039,0,1,0
1581955656225,2418029,0,1,0
1581955656335,2419084,0,1,0
1581955656435,2419844,0,1,0
1581955656535,2419763,0,1,0
1581955656637,2419563,0,1,0
1581955656736,2419569,0,1,0
1581955656835,2420245,0,1,0
1581955656935,2420511,0,1,0
1581955657036,2420597,0,1,0
1581955657136,2420500,0,1,0
1581955657236,2420977,0,1,0
1581955657336,2421413,0,1,0
1581955657436,2422118,0,1,0
1581955657536,2422661,0,1,0
1581955657636,2422948,0,1,0
1581955657736,2422817,0,1,0
1581955657836,2422882,0,1,0
1581955657936,2423022,0,1,0
1581955658036,2423180,0,1,0
1581955658136,2423333,0,1,0
1581955658236,2423670,0,1,0
1581955658336,2423613,0,1,0
1581955658437,2423570,0,1,0
1581955658537,2423786,0,1,0
1581955658637,2423807,0,1,0
1581955658737,2423937,0,1,0
1581955658837,2424069,0,1,0
1581955658937,2424252,0,1,0
1581955659028,2424232,0,1,0
1581955659127,2424235,0,1,0
1581955659227,2424672,0,1,0
1581955659327,2424901,0,1,0
1581955659427,2424971,0,1,0
1581955659527,2425159,0,1,0
1581955659627,2425150,0,1,0
1581955659727,2425299,0,1,0
1581955659827,2425382,0,1,0
1581955659927,2425511,0,1,0
1581955660028,2425523,0,1,0
1581955660128,2425533,0,1,0
1581955660227,2425562,0,1,0
1581955660328,2425765,0,1,0
1581955660428,2425747,0,1,0
1581955660528,2425642,0,1,0
1581955660628,2425733,0,1,0
1581955660728,2425822,0,1,0
1581955660828,2425914,0,1,0
1581955660928,2425872,0,1,0
1581955661028,2426184,0,1,0
1581955661128,2426173,0,1,0
1581955661228,2426189,0,1,0
1581955661338,2426217,0,1,0
1581955661437,2426249,0,1,0
1581955661537,2426349,0,1,0
1581955661637,2426397,0,1,0
1581955661739,2426734,0,1,0
1581955661838,2426718,0,1,0
1581955661937,2426867,0,1,0
1581955662038,2426912,0,1,0
1581955662138,2427037,0,1,0
1581955662238,2426989,0,1,0
1581955662338,2427148,0,1,0
1581955662438,2427125,0,1,0
1581955662538,2427210,0,1,0
1581955662638,2427382,0,1,0
1581955662738,2427395,0,1,0
1581955662828,2427517,0,1,0
1581955662928,2427479,0,1,0
1581955663028,2427562,0,1,0
1581955663128,2427509,0,1,0
1581955663228,2427615,0,1,0
1581955663328,2427735,0,1,0
1581955663428,2427821,0,1,0
1581955663529,2427882,0,1,0
1581955663628,2427897,0,1,0
1581955663728,2427948,0,1,0
1581955663828,2428162,0,1,0
1581955663929,2428291,0,1,0
1581955664029,2428320,0,1,0
1581955664129,2428345,0,1,0
1581955664229,2428248,0,1,0
1581955664329,2428310,0,1,0
1581955664429,2428280,0,1,0
1581955664529,2428377,0,1,0
1581955664629,2428574,0,1,0
1581955664729,2428728,0,1,0
1581955664829,2428831,0,1,0
1581955664929,2428708,0,1,0
1581955665030,2428701,0,1,0
1581955665130,2428714,0,1,0
1581955665229,2428773,0,1,0
1581955665329,2428732,0,1,0
1581955665430,2429020,0,1,0
1581955665530,2428959,0,1,0
1581955665630,2429012,0,1,0
1581955665730,2429109,0,1,0
1581955665830,2429096,0,1,0
1581955665930,2429184,0,1,0
1581955666030,2429304,0,1,0
1581955666130,2429268,0,1,0
1581955666230,2429428,0,1,0
1581955666330,2429366,0,1,0
1581955666430,2429365,0,1,0
1581955666531,2429363,0,1,0
1581955666631,2429619,0,1,0
1581955666731,2429510,0,1,0
1581955666830,2429836,0,1,0
1581955666931,2429728,0,1,0
1581955667031,2429713,0,1,0
1581955667131,2429756,0,1,0
1581955667231,2429755,0,1,0
1581955667331,2429780,0,1,0
1581955667431,2429862,0,1,0
1581955667531,2430078,0,1,0
1581955667631,2430383,0,1,0
1581955667742,2430492,0,1,0
1581955667842,2430617,0,1,0
1581955667941,2430591,0,1,0
1581955668042,2430770,0,1,0
1581955668142,2430818,0,1,0
1581955668241,2431052,0,1,0
1581955668342,2431094,0,1,0
1581955668442,2431246,0,1,0
1581955668542,2431569,0,1,0
1581955668642,2431745,0,1,0
1581955668742,2431884,0,1,0
1581955668842,2432170,0,1,0
1581955668942,2432033,0,1,0
1581955669043,2432427,0,1,0
1581955669142,2432910,0,1,0
1581955669242,2432983,0,1,0
1581955669332,2432922,0,1,0
1581955669432,2432759,0,1,0
1581955669532,2432887,0,1,0
1581955669632,2432956,0,1,0
1581955669732,2433160,0,1,0
1581955669832,2433204,0,1,0
1581955669932,2433230,0,1,0
1581955670033,2433503,0,1,0
1581955670133,2433571,0,1,0
1581955670233,2433662,0,1,0
1581955670332,2433663,0,1,0
1581955670433,2433803,0,1,0
1581955670533,2433890,0,1,0
1581955670633,2433910,0,1,0
1581955670733,2434109,0,1,0
1581955670833,2434116,0,1,0
1581955670933,2434295,0,1,0
1581955671034,2434351,0,1,0
1581955671134,2434344,0,1,0
1581955671233,2434547,0,1,0
1581955671344,2434644,0,1,0
1581955671434,2434780,0,1,0
1581955671544,2435039,0,1,0
1581955671644,2435240,0,1,0
1581955671744,2435218,0,1,0
1581955671844,2435242,0,1,0
1581955671944,2435330,0,1,0
1581955672044,2435343,0,1,0
1581955672144,2435415,0,1,0
1581955672245,2435553,0,1,0
1581955672344,2435383,0,1,0
1581955672444,2435558,0,1,0
1581955672545,2435554,0,1,0
1581955672645,2435491,0,1,0
1581955672745,2435385,0,1,0
1581955672845,2435564,0,1,0
1581955672945,2435608,0,1,0
1581955673045,2435980,0,1,0
1581955673145,2436109,0,1,0
1581955673245,2436095,0,1,0
1581955673345,2436373,0,1,0
1581955673445,2436336,0,1,0
1581955673545,2436438,0,1,0
1581955673645,2436668,0,1,0
1581955673747,2436840,0,1,0
1581955673846,2436908,0,1,0
1581955673945,2436895,0,1,0
1581955674046,2436987,0,1,0
1581955674146,2436951,0,1,0
1581955674245,2437115,0,1,0
1581955674336,2436973,0,1,0
1581955674436,2437039,0,1,0
1581955674536,2437191,0,1,0
1581955674636,2437274,0,1,0
1581955674736,2437155,0,1,0
1581955674836,2437207,0,1,0
1581955674936,2437359,0,1,0
1581955675037,2437541,0,1,0
1581955675136,2437612,0,1,0
1581955675236,2437790,0,1,0
1581955675336,2437762,0,1,0
1581955675436,2437893,0,1,0
1581955675536,2437940,0,1,0
1581955675637,2437996,0,1,0
1581955675736,2438255,0,1,0
1581955675837,2438191,0,1,0
1581955675937,2438479,0,1,0
1581955676037,2438620,0,1,0
1581955676147,2438728,0,1,0
1581955676247,2438835,0,1,0
1581955676347,2438617,0,1,0
1581955676437,2438804,0,1,0
1581955676537,2438891,0,1,0
1581955676639,2439083,0,1,0
1581955676748,2439126,0,1,0
1581955676848,2439033,0,1,0
1581955676947,2439124,0,1,0
1581955677049,2439129,0,1,0
1581955677148,2439131,0,1,0
1581955677248,2438987,0,1,0
1581955677348,2439171,0,1,0
1581955677449,2439254,0,1,0
1581955677548,2439205,0,1,0
1581955677648,2439267,0,1,0
1581955677748,2439341,0,1,0
1581955677860,2439304,0,1,0
1581955677938,2439292,0,1,0
1581955678038,2439436,0,1,0
1581955678138,2439456,0,1,0
1581955678238,2439417,0,1,0
1581955678338,2439523,0,1,0
1581955678438,2439504,0,1,0
1581955678539,2439499,0,1,0
1581955678639,2439528,0,1,0
1581955678738,2439431,0,1,0
1581955678838,2439472,0,1,0
1581955678939,2439536,0,1,0
1581955679039,2439748,0,1,0
1581955679139,2439729,0,1,0
1581955679239,2439641,0,1,0
1581955679339,2439631,0,1,0
1581955679439,2439787,0,1,0
1581955679539,2439699,0,1,0
1581955679639,2439747,0,1,0
1581955679739,2439854,0,1,0
1581955679839,2439798,0,1,0
1581955679939,2439754,0,1,0
1581955680039,2439544,0,1,0
1581955680139,2439568,0,1,0
1581955680239,2439497,0,1,0
1581955680339,2439511,0,1,0
1581955680440,2439498,0,1,0
1581955680540,2439551,0,1,0
1581955680640,2439401,0,1,0
1581955680740,2439429,0,1,0
1581955680840,2439494,0,1,0
1581955680940,2439292,0,1,0
1581955681050,2439058,0,1,0
1581955681150,2439200,0,1,0
1581955681250,2439083,0,1,0
1581955681350,2439197,0,1,0
1581955681450,2439068,0,1,0
1581955681551,2438958,0,1,0
1581955681651,2438980,0,1,0
1581955681750,2438712,0,1,0
1581955681851,2438913,0,1,0
1581955681951,2438714,0,1,0
1581955682041,2438813,0,1,0
1581955682141,2438659,0,1,0
1581955682241,2438656,0,1,0
1581955682341,2438411,0,1,0
1581955682441,2438220,0,1,0
1581955682541,2438117,0,1,0
1581955682641,2438124,0,1,0
1581955682741,2437973,0,1,0
1581955682841,2438020,0,1,0
1581955682941,2438122,0,1,0
1581955683042,2438085,0,1,0
1581955683152,2437823,0,1,0
1581955683251,2437634,0,1,0
1581955683352,2437365,0,1,0
1581955683452,2437283,0,1,0
1581955683552,2437241,0,1,0
1581955683652,2437054,0,1,0
1581955683752,2437160,0,1,0
1581955683852,2437102,0,1,0
1581955683952,2436825,0,1,0
1581955684052,2436870,0,1,0
1581955684152,2436629,0,1,0
1581955684252,2436650,0,1,0
1581955684342,2436552,0,1,0
1581955684442,2436300,0,1,0
1581955684542,2436192,0,1,0
1581955684643,2436001,0,1,0
1581955684743,2435703,0,1,0
1581955684842,2435515,0,1,0
1581955684943,2435295,0,1,0
1581955685043,2435279,0,1,0
1581955685143,2435248,0,1,0
1581955685243,2435183,0,1,0
1581955685343,2434983,0,1,0
1581955685443,2434899,0,1,0
1581955685543,2434534,0,1,0
1581955685643,2434262,0,1,0
1581955685743,2434213,0,1,0
1581955685843,2434096,0,1,0
1581955685943,2434088,0,1,0
1581955686043,2434141,0,1,0
1581955686143,2434027,0,1,0
1581955686243,2433819,0,1,0
1581955686354,2433725,0,1,0
1581955686454,2433616,0,1,0
1581955686554,2433490,0,1,0
1581955686655,2433376,0,1,0
1581955686754,2433303,0,1,0
1581955686854,2433453,0,1,0
1581955686954,2433277,0,1,0
1581955687056,2433066,0,1,0
1581955687156,2432897,0,1,0
1581955687256,2432666,0,1,0
1581955687356,2432405,0,1,0
1581955687455,2432498,0,1,0
1581955687555,2432386,0,1,0
1581955687655,2432216,0,1,0
1581955687755,2432092,0,1,0
1581955687855,2431835,0,1,0
1581955687955,2431737,0,1,0
1581955688055,2431578,0,1,0
1581955688155,2431545,0,1,0
1581955688255,2431455,0,1,0
1581955688355,2431503,0,1,0
1581955688455,2431396,0,1,0
1581955688556,2431198,0,1,0
1581955688656,2430959,0,1,0
1581955688755,2430645,0,1,0
1581955688855,2430513,0,1,0
1581955688945,2430536,0,1,0
1581955689046,2430279,0,1,0
1581955689145,2430461,0,1,0
1581955689245,2430428,0,1,0
1581955689345,2430394,0,1,0
1581955689445,2430087,0,1,0
1581955689546,2430103,0,1,0
1581955689646,2429881,0,1,0
1581955689746,2429828,0,1,0
1581955689846,2429683,0,1,0
1581955689946,2429575,0,1,0
1581955690046,2429574,0,1,0
1581955690146,2429425,0,1,0
1581955690246,2429075,0,1,0
1581955690346,2428926,0,1,0
1581955690446,2428898,0,1,0
1581955690546,2428710,0,1,0
1581955690649,2428599,0,1,0
1581955690747,2428589,0,1,0
1581955690846,2428464,0,1,0
1581955690957,2428258,0,1,0
1581955691048,2427979,0,1,0
1581955691147,2427599,0,1,0
1581955691247,2427507,0,1,0
1581955691347,2427508,0,1,0
1581955691447,2427383,0,1,0
1581955691560,2427288,0,1,0
1581955691657,2427423,0,1,0
1581955691759,2427253,0,1,0
1581955691858,2427184,0,1,0
1581955691957,2427013,0,1,0
1581955692058,2426845,0,1,0
1581955692158,2426857,0,1,0
1581955692259,2426781,0,1,0
1581955692358,2426679,0,1,0
1581955692458,2426606,0,1,0
1581955692558,2426726,0,1,0
1581955692658,2426662,0,1,0
1581955692758,2426628,0,1,0
1581955692858,2426380,0,1,0
1581955692958,2426286,0,1,0
1581955693058,2426260,0,1,0
1581955693158,2426311,0,1,0
1581955693258,2426362,0,1,0
1581955693358,2426148,0,1,0
1581955693458,2426042,0,1,0
1581955693559,2425815,0,1,0
1581955693659,2425802,0,1,0
1581955693759,2425986,0,1,0
1581955693859,2426010,0,1,0
1581955693959,2426007,0,1,0
1581955694060,2426066,0,1,0
1581955694159,2425936,0,1,0
1581955694259,2425862,0,1,0
1581955694349,2425909,0,1,0
1581955694449,2425614,0,1,0
1581955694549,2425764,0,1,0
1581955694649,2425886,0,1,0
1581955694749,2426030,0,1,0
1581955694849,2426092,0,1,0
1581955694949,2426098,0,1,0
1581955695050,2426084,0,1,0
1581955695149,2425947,0,1,0
1581955695249,2425525,0,1,0
1581955695349,2425442,0,1,0
1581955695449,2425656,0,1,0
1581955695550,2425888,0,1,0
1581955695650,2425962,0,1,0
1581955695750,2426099,0,1,0
1581955695850,2425816,0,1,0
1581955695950,2425868,0,1,0
1581955696050,2425811,0,1,0
1581955696150,2425850,0,1,0
1581955696250,2425893,0,1,0
1581955696350,2426050,0,1,0
1581955696450,2426083,0,1,0
1581955696550,2426059,0,1,0
1581955696651,2426041,0,1,0
1581955696751,2425988,0,1,0
1581955696850,2426025,0,1,0
1581955696950,2426138,0,1,0
1581955697051,2426350,0,1,0
1581955697151,2426299,0,1,0
1581955697251,2426251,0,1,0
1581955697351,2426288,0,1,0
1581955697451,2426335,0,1,0
1581955697562,2426233,0,1,0
1581955697661,2426456,0,1,0
1581955697762,2426411,0,1,0
1581955697862,2426662,0,1,0
1581955697961,2426868,0,1,0
1581955698062,2426762,0,1,0
1581955698162,2426776,0,1,0
1581955698261,2426811,0,1,0
1581955698362,2427113,0,1,0
1581955698462,2426888,0,1,0
1581955698562,2427226,0,1,0
1581955698662,2427187,0,1,0
1581955698762,2427232,0,1,0
1581955698862,2427133,0,1,0
1581955698962,2426840,0,1,0
1581955699063,2426999,0,1,0
1581955699162,2426981,0,1,0
1581955699262,2427080,0,1,0
1581955699352,2427145,0,1,0
1581955699452,2427258,0,1,0
1581955699552,2427215,0,1,0
1581955699653,2427057,0,1,0
1581955699752,2427089,0,1,0
1581955699852,2427221,0,1,0
1581955699952,2427339,0,1,0
1581955700053,2427354,0,1,0
1581955700153,2427245,0,1,0
1581955700253,2427387,0,1,0
1581955700353,2427483,0,1,0
1581955700454,2427439,0,1,0
1581955700554,2427530,0,1,0
1581955700654,2427476,0,1,0
1581955700754,2427445,0,1,0
1581955700854,2427656,0,1,0
1581955700954,2427762,0,1,0
1581955701054,2427707,0,1,0
1581955701154,2427676,0,1,0
1581955701254,2427735,0,1,0
1581955701354,2427600,0,1,0
1581955701454,2427713,0,1,0
1581955701555,2427877,0,1,0
1581955701655,2427791,0,1,0
1581955701755,2427833,0,1,0
1581955701855,2427693,0,1,0
1581955701955,2427751,0,1,0
1581955702055,2427806,0,1,0
1581955702155,2427871,0,1,0
1581955702256,2428012,0,1,0
1581955702365,2428017,0,1,0
1581955702465,2427946,0,1,0
1581955702566,2427944,0,1,0
1581955702666,2427888,0,1,0
1581955702766,2427896,0,1,0
1581955702866,2427949,0,1,0
1581955702966,2427978,0,1,0
1581955703067,2427920,0,1,0
1581955703166,2427770,0,1,0
1581955703267,2427581,0,1,0
1581955703367,2427549,0,1,0
1581955703456,2427494,0,1,0
1581955703567,2427628,0,1,0
1581955703667,2427598,0,1,0
1581955703770,2427340,0,1,0
1581955703867,2427306,0,1,0
1581955703967,2427270,0,1,0
1581955704067,2427387,0,1,0
1581955704167,2427365,0,1,0
1581955704267,2427329,0,1,0
1581955704357,2427133,0,1,0
1581955704456,2427005,0,1,0
1581955704557,2427045,0,1,0
1581955704659,2426979,0,1,0
1581955704757,2426900,0,1,0
1581955704857,2427010,0,1,0
1581955704957,2427007,0,1,0
1581955705058,2426916,0,1,0
1581955705158,2426803,0,1,0
1581955705258,2426706,0,1,0
1581955705358,2426694,0,1,0
1581955705457,2426749,0,1,0
1581955705558,2426943,0,1,0
1581955705658,2426820,0,1,0
1581955705758,2426696,0,1,0
1581955705858,2426679,0,1,0
1581955705958,2426655,0,1,0
1581955706058,2426537,0,1,0
1581955706158,2426523,0,1,0
1581955706258,2426622,0,1,0
1581955706368,2426642,0,1,0
1581955706468,2426649,0,1,0
1581955706569,2426566,0,1,0
1581955706670,2426621,0,1,0
1581955706769,2426592,0,1,0
1581955706869,2426536,0,1,0
1581955706969,2426610,0,1,0
1581955707069,2426601,0,1,0
1581955707168,2426621,0,1,0
1581955707268,2426581,0,1,0
1581955707368,2426490,0,1,0
1581955707468,2426422,0,1,0
1581955707568,2426491,0,1,0
1581955707668,2426624,0,1,0
1581955707768,2426647,0,1,0
1581955707881,2426549,0,1,0
1581955707958,2426527,0,1,0
1581955708058,2426460,0,1,0
1581955708158,2426376,0,1,0
1581955708258,2426402,0,1,0
1581955708358,2426501,0,1,0
1581955708458,2426505,0,1,0
1581955708559,2426477,0,1,0
1581955708659,2426507,0,1,0
1581955708759,2426501,0,1,0
1581955708858,2426444,0,1,0
1581955708959,2426361,0,1,0
1581955709059,2426332,0,1,0
1581955709159,2426469,0,1,0
1581955709259,2426589,0,1,0
1581955709359,2426569,0,1,0
1581955709459,2426570,0,1,0
1581955709559,2426632,0,1,0
1581955709659,2426535,0,1,0
1581955709759,2426558,0,1,0
1581955709859,2426684,0,1,0
1581955709959,2426833,0,1,0
1581955710059,2426849,0,1,0
1581955710159,2426754,0,1,0
1581955710259,2426783,0,1,0
1581955710359,2426807,0,1,0
1581955710459,2426854,0,1,0
1581955710560,2426856,0,1,0
1581955710660,2427061,0,1,0
1581955710760,2427161,0,1,0
1581955710860,2427101,0,1,0
1581955710960,2427104,0,1,0
1581955711060,2427082,0,1,0
1581955711171,2427144,0,1,0
1581955711270,2427289,0,1,0
1581955711370,2427287,0,1,0
1581955711470,2427495,0,1,0
1581955711571,2427262,0,1,0
1581955711671,2427372,0,1,0
1581955711771,2427391,0,1,0
1581955711871,2427482,0,1,0
1581955711971,2427599,0,1,0
1581955712071,2427606,0,1,0
1581955712171,2427592,0,1,0
1581955712271,2427862,0,1,0
1581955712371,2427718,0,1,0
1581955712471,2427780,0,1,0
1581955712571,2427811,0,1,0
1581955712671,2427839,0,1,0
1581955712771,2427980,0,1,0
1581955712871,2428056,0,1,0
1581955712971,2428098,0,1,0
1581955713072,2428170,0,1,0
1581955713172,2428073,0,1,0
1581955713272,2428089,0,1,0
1581955713372,2428158,0,1,0
1581955713472,2428203,0,1,0
1581955713572,2428191,0,1,0
1581955713672,2428438,0,1,0
1581955713772,2428292,0,1,0
1581955713872,2428307,0,1,0
1581955713972,2428176,0,1,0
1581955714072,2428160,0,1,0
1581955714172,2428149,0,1,0
1581955714272,2428102,0,1,0
1581955714362,2428237,0,1,0
1581955714462,2428352,0,1,0
1581955714562,2428228,0,1,0
1581955714663,2428025,0,1,0
1581955714763,2428095,0,1,0
1581955714862,2428006,0,1,0
1581955714962,2427881,0,1,0
1581955715063,2427951,0,1,0
1581955715163,2427879,0,1,0
1581955715263,2427941,0,1,0
1581955715363,2427684,0,1,0
1581955715463,2427585,0,1,0
1581955715563,2427553,0,1,0
1581955715663,2427495,0,1,0
1581955715763,2427464,0,1,0
1581955715865,2427488,0,1,0
1581955715963,2427362,0,1,0
1581955716063,2427225,0,1,0
1581955716163,2426822,0,1,0
1581955716263,2426714,0,1,0
1581955716374,2426511,0,1,0
1581955716474,2426350,0,1,0
1581955716574,2426378,0,1,0
1581955716675,2426306,0,1,0
1581955716774,2426176,0,1,0
1581955716874,2425950,0,1,0
1581955716974,2425507,0,1,0
1581955717075,2425319,0,1,0
1581955717174,2425171,0,1,0
1581955717275,2424998,0,1,0
1581955717374,2424837,0,1,0
1581955717474,2424662,0,1,0
1581955717575,2424576,0,1,0
1581955717675,2424440,0,1,0
1581955717775,2424160,0,1,0
1581955717875,2423989,0,1,0
1581955717975,2423730,0,1,0
1581955718075,2423646,0,1,0
1581955718175,2423506,0,1,0
1581955718275,2423408,0,1,0
1581955718375,2423082,0,1,0
1581955718475,2422880,0,1,0
1581955718576,2422613,0,1,0
1581955718675,2422386,0,1,0
1581955718775,2422142,0,1,0
1581955718875,2422042,0,1,0
1581955718965,2422046,0,1,0
1581955719066,2421906,0,1,0
1581955719166,2421477,0,1,0
1581955719265,2421210,0,1,0
1581955719366,2420906,0,1,0
1581955719465,2420759,0,1,0
1581955719566,2420688,0,1,0
1581955719666,2420497,0,1,0
1581955719766,2420527,0,1,0
1581955719866,2420121,0,1,0
1581955719966,2419896,0,1,0
1581955720066,2419677,0,1,0
1581955720168,2419387,0,1,0
1581955720266,2419137,0,1,0
1581955720367,2419058,0,1,0
1581955720467,2419107,0,1,0
1581955720566,2418751,0,1,0
1581955720668,2418604,0,1,0
1581955720767,2418177,0,1,0
1581955720867,2417914,0,1,0
1581955720967,2417575,0,1,0
1581955721068,2417613,0,1,0
1581955721167,2417458,0,1,0
1581955721267,2417338,0,1,0
1581955721367,2417203,0,1,0
1581955721467,2417119,0,1,0
1581955721578,2416708,0,1,0
1581955721678,2416450,0,1,0
1581955721779,2416227,0,1,0
1581955721878,2415899,0,1,0
1581955721978,2415768,0,1,0
1581955722078,2415781,0,1,0
1581955722178,2415881,0,1,0
1581955722279,2415761,0,1,0
1581955722379,2415660,0,1,0
1581955722479,2415186,0,1,0
1581955722579,2415098,0,1,0
1581955722679,2414832,0,1,0
1581955722779,2414720,0,1,0
1581955722879,2414811,0,1,0
1581955722979,2414743,0,1,0
1581955723079,2414737,0,1,0
1581955723179,2414383,0,1,0
1581955723278,2414191,0,1,0
1581955723378,2414022,0,1,0
1581955723479,2414001,0,1,0
1581955723579,2413972,0,1,0
1581955723679,2413908,0,1,0
1581955723779,2414000,0,1,0
1581955723879,2413794,0,1,0
1581955723979,2413574,0,1,0
1581955724080,2413342,0,1,0
1581955724179,2413115,0,1,0
1581955724279,2413045,0,1,0
1581955724369,2413026,0,1,0
1581955724469,2412855,0,1,0
1581955724569,2412965,0,1,0
1581955724669,2412819,0,1,0
1581955724769,2412580,0,1,0
1581955724869,2412170,0,1,0
1581955724969,2412012,0,1,0
1581955725070,2411853,0,1,0
1581955725170,2411720,0,1,0
1581955725269,2411720,0,1,0
1581955725369,2411725,0,1,0
1581955725470,2411267,0,1,0
1581955725570,2411041,0,1,0
1581955725670,2410603,0,1,0
1581955725770,2410391,0,1,0
1581955725870,2410314,0,1,0
1581955725970,2410396,0,1,0
1581955726070,2410348,0,1,0
1581955726170,2409990,0,1,0
1581955726270,2409697,0,1,0
1581955726370,2409308,0,1,0
1581955726480,2409285,0,1,0
1581955726571,2409128,0,1,0
1581955726671,2409084,0,1,0
1581955726771,2409064,0,1,0
1581955726870,2408996,0,1,0
1581955726971,2408725,0,1,0
1581955727071,2408503,0,1,0
1581955727171,2408510,0,1,0
1581955727271,2408398,0,1,0
1581955727371,2408425,0,1,0
1581955727471,2408591,0,1,0
1581955727571,2408340,0,1,0
1581955727671,2408225,0,1,0
1581955727782,2408125,0,1,0
1581955727882,2408077,0,1,0
1581955727981,2408021,0,1,0
1581955728082,2408099,0,1,0
1581955728182,2408208,0,1,0
1581955728282,2408382,0,1,0
1581955728382,2408511,0,1,0
1581955728482,2408352,0,1,0
1581955728582,2408301,0,1,0
1581955728682,2408297,0,1,0
1581955728782,2408319,0,1,0
1581955728882,2408492,0,1,0
1581955728982,2408753,0,1,0
1581955729083,2408980,0,1,0
1581955729172,2409046,0,1,0
1581955729272,2409096,0,1,0
1581955729372,2409186,0,1,0
1581955729472,2409190,0,1,0
1581955729572,2409350,0,1,0
1581955729672,2409612,0,1,0
1581955729772,2409775,0,1,0
1581955729872,2410142,0,1,0
1581955729973,2410074,0,1,0
1581955730073,2410273,0,1,0
1581955730173,2410371,0,1,0
1581955730273,2410505,0,1,0
1581955730373,2410742,0,1,0
1581955730473,2411033,0,1,0
1581955730573,2411348,0,1,0
1581955730673,2411313,0,1,0
1581955730773,2411349,0,1,0
1581955730873,2411599,0,1,0
1581955730973,2411727,0,1,0
1581955731074,2411771,0,1,0
1581955731174,2412189,0,1,0
1581955731273,2412407,0,1,0
1581955731373,2412551,0,1,0
1581955731484,2412693,0,1,0
1581955731584,2412804,0,1,0
1581955731684,2412835,0,1,0
1581955731784,2412975,0,1,0
1581955731884,2413318,0,1,0
1581955731984,2413525,0,1,0
1581955732084,2413734,0,1,0
1581955732184,2413634,0,1,0
1581955732285,2413867,0,1,0
1581955732384,2413925,0,1,0
1581955732484,2414041,0,1,0
1581955732585,2414314,0,1,0
1581955732685,2414491,0,1,0
1581955732785,2414782,0,1,0
1581955732885,2414690,0,1,0
1581955732985,2414770,0,1,0
1581955733085,2414996,0,1,0
1581955733185,2415077,0,1,0
1581955733285,2415220,0,1,0
1581955733385,2415470,0,1,0
1581955733485,2415719,0,1,0
1581955733585,2415660,0,1,0
1581955733685,2415743,0,1,0
1581955733787,2415812,0,1,0
1581955733886,2415841,0,1,0
1581955733985,2416034,0,1,0
1581955734086,2416135,0,1,0
1581955734186,2416410,0,1,0
1581955734286,2416585,0,1,0
1581955734376,2416624,0,1,0
1581955734476,2416675,0,1,0
1581955734576,2416707,0,1,0
1581955734676,2416779,0,1,0
1581955734776,2416969,0,1,0
1581955734876,2417231,0,1,0
1581955734976,2417406,0,1,0
1581955735077,2417619,0,1,0
1581955735176,2417657,0,1,0
1581955735276,2417757,0,1,0
1581955735376,2417940,0,1,0
1581955735476,2418006,0,1,0
1581955735576,2418254,0,1,0
1581955735677,2418535,0,1,0
1581955735777,2418690,0,1,0
1581955735876,2418810,0,1,0
1581955735977,2418738,0,1,0
1581955736077,2418872,0,1,0
1581955736177,2419060,0,1,0
1581955736287,2419247,0,1,0
1581955736377,2419455,0,1,0
1581955736477,2419563,0,1,0
1581955736577,2419737,0,1,0
1581955736679,2419804,0,1,0
1581955736788,2419908,0,1,0
1581955736888,2419870,0,1,0
1581955736988,2420080,0,1,0
1581955737089,2420338,0,1,0
1581955737188,2420426,0,1,0
1581955737288,2420692,0,1,0
1581955737388,2420837,0,1,0
1581955737488,2420899,0,1,0
1581955737588,2421115,0,1,0
1581955737688,2421080,0,1,0
1581955737788,2421315,0,1,0
1581955737878,2421401,0,1,0
1581955737978,2421754,0,1,0
1581955738078,2421743,0,1,0
1581955738178,2421760,0,1,0
1581955738278,2421892,0,1,0
1581955738378,2421961,0,1,0
1581955738478,2422160,0,1,0
1581955738578,2422372,0,1,0
1581955738679,2422496,0,1,0
1581955738779,2422791,0,1,0
1581955738878,2422683,0,1,0
1581955738979,2422739,0,1,0
1581955739079,2422814,0,1,0
1581955739179,2422920,0,1,0
1581955739279,2423092,0,1,0
1581955739379,2423362,0,1,0
1581955739479,2423454,0,1,0
1581955739579,2423675,0,1,0
1581955739679,2423653,0,1,0
1581955739779,2423856,0,1,0
1581955739879,2423858,0,1,0
1581955739979,2424000,0,1,0
1581955740080,2424118,0,1,0
1581955740179,2424342,0,1,0
1581955740279,2424522,0,1,0
1581955740379,2424614,0,1,0
1581955740480,2424560,0,1,0
1581955740580,2424597,0,1,0
1581955740680,2424880,0,1,0
1581955740780,2425030,0,1,0
1581955740880,2425119,0,1,0
1581955740990,2425279,0,1,0
1581955741090,2425394,0,1,0
1581955741191,2425638,0,1,0
1581955741290,2425575,0,1,0
1581955741390,2425580,0,1,0
1581955741490,2425740,0,1,0
1581955741591,2425796,0,1,0
1581955741691,2425903,0,1,0
1581955741791,2425999,0,1,0
1581955741891,2426230,0,1,0
1581955741991,2426324,0,1,0
1581955742091,2426302,0,1,0
1581955742191,2426300,0,1,0
1581955742291,2426341,0,1,0
1581955742391,2426348,0,1,0
1581955742491,2426440,0,1,0
1581955742591,2426605,0,1,0
1581955742691,2426730,0,1,0
1581955742791,2426810,0,1,0
1581955742891,2426679,0,1,0
1581955742991,2426743,0,1,0
1581955743092,2426711,0,1,0
1581955743192,2426804,0,1,0
1581955743292,2426959,0,1,0
1581955743392,2426948,0,1,0
1581955743493,2427158,0,1,0
1581955743592,2427124,0,1,0
1581955743692,2427053,0,1,0
1581955743792,2427038,0,1,0
1581955743892,2427124,0,1,0
1581955743992,2426938,0,1,0
1581955744092,2427084,0,1,0
1581955744192,2427135,0,1,0
1581955744292,2427342,0,1,0
1581955744382,2427103,0,1,0
1581955744482,2427148,0,1,0
1581955744583,2426984,0,1,0
1581955744683,2427019,0,1,0
1581955744783,2426970,0,1,0
1581955744882,2426980,0,1,0
1581955744983,2427037,0,1,0
1581955745083,2427074,0,1,0
1581955745183,2427000,0,1,0
1581955745283,2426851,0,1,0
1581955745383,2426826,0,1,0
1581955745483,2426819,0,1,0
1581955745583,2426762,0,1,0
1581955745683,2427000,0,1,0
1581955745783,2427091,0,1,0
1581955745883,2426986,0,1,0
1581955745983,2426907,0,1,0
1581955746083,2426716,0,1,0
1581955746183,2426694,0,1,0
1581955746283,2426814,0,1,0
1581955746383,2426728,0,1,0
1581955746484,2426740,0,1,0
1581955746584,2426998,0,1,0
1581955746684,2427071,0,1,0
1581955746784,2427060,0,1,0
1581955746884,2426969,0,1,0
1581955746984,2426741,0,1,0
1581955747084,2426849,0,1,0
1581955747184,2426779,0,1,0
1581955747284,2426948,0,1,0
1581955747384,2427079,0,1,0
1581955747484,2427007,0,1,0
1581955747595,2426998,0,1,0
1581955747695,2426912,0,1,0
1581955747795,2427084,0,1,0
1581955747895,2427021,0,1,0
1581955747995,2427223,0,1,0
1581955748095,2427492,0,1,0
1581955748195,2427371,0,1,0
1581955748295,2427339,0,1,0
1581955748395,2427199,0,1,0
1581955748495,2427274,0,1,0
1581955748585,2427264,0,1,0
1581955748685,2427406,0,1,0
1581955748785,2427562,0,1,0
1581955748885,2427613,0,1,0
1581955748985,2427541,0,1,0
1581955749086,2427662,0,1,0
1581955749185,2427581,0,1,0
1581955749285,2427627,0,1,0
1581955749386,2427724,0,1,0
1581955749486,2427845,0,1,0
1581955749586,2428089,0,1,0
1581955749686,2428118,0,1,0
1581955749786,2427955,0,1,0
1581955749886,2428100,0,1,0
1581955749986,2428010,0,1,0
1581955750086,2428234,0,1,0
1581955750186,2428288,0,1,0
1581955750286,2428544,0,1,0
1581955750386,2428536,0,1,0
1581955750486,2428684,0,1,0
1581955750586,2428727,0,1,0
1581955750688,2428639,0,1,0
1581955750787,2428772,0,1,0
1581955750887,2428839,0,1,0
1581955750987,2428994,0,1,0
1581955751088,2429241,0,1,0
1581955751187,2429374,0,1,0
1581955751287,2429355,0,1,0
1581955751387,2429515,0,1,0
1581955751487,2429553,0,1,0
1581955751597,2429667,0,1,0
1581955751697,2429917,0,1,0
1581955751799,2430090,0,1,0
1581955751898,2430188,0,1,0
1581955751998,2430272,0,1,0
1581955752098,2430497,0,1,0
1581955752198,2430374,0,1,0
1581955752299,2430577,0,1,0
1581955752398,2430813,0,1,0
1581955752498,2430973,0,1,0
1581955752598,2431082,0,1,0
1581955752698,2431318,0,1,0
1581955752798,2431399,0,1,0
1581955752898,2431514,0,1,0
1581955752998,2431385,0,1,0
1581955753098,2431617,0,1,0
1581955753198,2431617,0,1,0
1581955753298,2431805,0,1,0
1581955753398,2431930,0,1,0
1581955753499,2432164,0,1,0
1581955753599,2432305,0,1,0
1581955753699,2432353,0,1,0
1581955753799,2432495,0,1,0
1581955753899,2432616,0,1,0
1581955753999,2432640,0,1,0
1581955754100,2432789,0,1,0
1581955754199,2432923,0,1,0
1581955754301,2432876,0,1,0
1581955754389,2433194,0,1,0
1581955754489,2433185,0,1,0
1581955754589,2433400,0,1,0
1581955754689,2433432,0,1,0
1581955754789,2433585,0,1,0
1581955754889,2433618,0,1,0
1581955754989,2433738,0,1,0
1581955755090,2433882,0,1,0
1581955755190,2433959,0,1,0
1581955755289,2434190,0,1,0
1581955755389,2434012,0,1,0
1581955755490,2434132,0,1,0
1581955755590,2434185,0,1,0
1581955755690,2434270,0,1,0
1581955755790,2434397,0,1,0
1581955755890,2434514,0,1,0
1581955755990,2434514,0,1,0
1581955756090,2434654,0,1,0
1581955756190,2434715,0,1,0
1581955756290,2434679,0,1,0
1581955756390,2434660,0,1,0
1581955756502,2434743,0,1,0
1581955756602,2434784,0,1,0
1581955756692,2434857,0,1,0
1581955756803,2434944,0,1,0
1581955756902,2434911,0,1,0
1581955757002,2434955,0,1,0
1581955757102,2435018,0,1,0
1581955757202,2434893,0,1,0
1581955757302,2434928,0,1,0
1581955757401,2435036,0,1,0
1581955757501,2435063,0,1,0
1581955757601,2435095,0,1,0
1581955757701,2435274,0,1,0
1581955757803,2435163,0,1,0
1581955757902,2435200,0,1,0
1581955758001,2435083,0,1,0
1581955758102,2435122,0,1,0
1581955758202,2435114,0,1,0
1581955758301,2435034,0,1,0
1581955758402,2435130,0,1,0
1581955758502,2435095,0,1,0
1581955758602,2435008,0,1,0
1581955758702,2434829,0,1,0
1581955758802,2434785,0,1,0
1581955758902,2434840,0,1,0
1581955759002,2434577,0,1,0
1581955759103,2434504,0,1,0
1581955759202,2434538,0,1,0
1581955759302,2434628,0,1,0
1581955759392,2434377,0,1,0
1581955759492,2434271,0,1,0
1581955759592,2434269,0,1,0
1581955759692,2433962,0,1,0
1581955759792,2433931,0,1,0
1581955759892,2433753,0,1,0
1581955759993,2433767,0,1,0
1581955760093,2433663,0,1,0
1581955760193,2433243,0,1,0
1581955760293,2433123,0,1,0
1581955760393,2432907,0,1,0
1581955760493,2432805,0,1,0
1581955760593,2432707,0,1,0
1581955760693,2432681,0,1,0
1581955760793,2432511,0,1,0
1581955760893,2432391,0,1,0
1581955760993,2432061,0,1,0
1581955761094,2432067,0,1,0
1581955761194,2431599,0,1,0
1581955761293,2431511,0,1,0
1581955761393,2431381,0,1,0
1581955761494,2431494,0,1,0
1581955761594,2431373,0,1,0
1581955761694,2431030,0,1,0
1581955761794,2430665,0,1,0
1581955761894,2430535,0,1,0
1581955761994,2430459,0,1,0
1581955762094,2430190,0,1,0
1581955762194,2430280,0,1,0
1581955762295,2430296,0,1,0
1581955762394,2430234,0,1,0
1581955762494,2430006,0,1,0
1581955762594,2429644,0,1,0
1581955762695,2429650,0,1,0
1581955762795,2429457,0,1,0
1581955762895,2429399,0,1,0
1581955762995,2429324,0,1,0
1581955763095,2429334,0,1,0
1581955763195,2429263,0,1,0
1581955763295,2429165,0,1,0
1581955763395,2429054,0,1,0
1581955763495,2428694,0,1,0
1581955763595,2428637,0,1,0
1581955763695,2428716,0,1,0
1581955763795,2428614,0,1,0
1581955763895,2428707,0,1,0
1581955764006,2428526,0,1,0
1581955764106,2428360,0,1,0
1581955764206,2428071,0,1,0
1581955764306,2427858,0,1,0
1581955764396,2428023,0,1,0
1581955764496,2427768,0,1,0
1581955764596,2427827,0,1,0
1581955764696,2427733,0,1,0
1581955764796,2427421,0,1,0
1581955764896,2427392,0,1,0
1581955764996,2427065,0,1,0
1581955765097,2427028,0,1,0
1581955765196,2427072,0,1,0
1581955765296,2427015,0,1,0
1581955765396,2426847,0,1,0
1581955765496,2426596,0,1,0
1581955765597,2426458,0,1,0
1581955765697,2426337,0,1,0
1581955765797,2426074,0,1,0
1581955765897,2426103,0,1,0
1581955765997,2426168,0,1,0
1581955766097,2425990,0,1,0
1581955766197,2426025,0,1,0
1581955766297,2425725,0,1,0
1581955766397,2425545,0,1,0
1581955766497,2425366,0,1,0
1581955766597,2425258,0,1,0
1581955766709,2425325,0,1,0
1581955766808,2425127,0,1,0
1581955766908,2425146,0,1,0
1581955767008,2425020,0,1,0
1581955767108,2424842,0,1,0
1581955767208,2424738,0,1,0
1581955767308,2424616,0,1,0
1581955767408,2424586,0,1,0
1581955767508,2424631,0,1,0
1581955767608,2424360,0,1,0
1581955767708,2424155,0,1,0
1581955767808,2424123,0,1,0
1581955767898,2423964,0,1,0
1581955767998,2423985,0,1,0
1581955768098,2424003,0,1,0
1581955768198,2423864,0,1,0
1581955768298,2423702,0,1,0
1581955768398,2423459,0,1,0
1581955768499,2423407,0,1,0
1581955768598,2423406,0,1,0
1581955768699,2423287,0,1,0
1581955768799,2423225,0,1,0
1581955768899,2423141,0,1,0
1581955768999,2423073,0,1,0
1581955769099,2422835,0,1,0
1581955769199,2422851,0,1,0
1581955769299,2422640,0,1,0
1581955769399,2422753,0,1,0
1581955769499,2422651,0,1,0
1581955769599,2422571,0,1,0
1581955769699,2422423,0,1,0
1581955769800,2422339,0,1,0
1581955769899,2422204,0,1,0
1581955769999,2422101,0,1,0
1581955770100,2421936,0,1,0
1581955770199,2421954,0,1,0
1581955770310,2421934,0,1,0
1581955770409,2421885,0,1,0
1581955770511,2421989,0,1,0
1581955770610,2422019,0,1,0
1581955770711,2422093,0,1,0
1581955770811,2422056,0,1,0
1581955770911,2422277,0,1,0
1581955771010,2422468,0,1,0
1581955771112,2422438,0,1,0
1581955771211,2422419,0,1,0
1581955771311,2422400,0,1,0
1581955771411,2422443,0,1,0
1581955771512,2422417,0,1,0
1581955771612,2422541,0,1,0
1581955771713,2422722,0,1,0
1581955771812,2422856,0,1,0
1581955771912,2422869,0,1,0
1581955772012,2422718,0,1,0
1581955772113,2422523,0,1,0
1581955772212,2422095,0,1,0
1581955772313,2422069,0,1,0
1581955772412,2422365,0,1,0
1581955772513,2422677,0,1,0
1581955772612,2423132,0,1,0
1581955772713,2423525,0,1,0
1581955772812,2423690,0,1,0
1581955772913,2423969,0,1,0
1581955773013,2424344,0,1,0
1581955773114,2424734,0,1,0
1581955773213,2424801,0,1,0
1581955773313,2424934,0,1,0
1581955773413,2424909,0,1,0
1581955773514,2424846,0,1,0
1581955773613,2424658,0,1,0
1581955773714,2424651,0,1,0
1581955773813,2424632,0,1,0
1581955773914,2424617,0,1,0
1581955774013,2424602,0,1,0
1581955774114,2424528,0,1,0
1581955774213,2424498,0,1,0
1581955774315,2424514,0,1,0
1581955774414,2424328,0,1,0
1581955774514,2424294,0,1,0
1581955774614,2424325,0,1,0
1581955774715,2424449,0,1,0
1581955774814,2424259,0,1,0
1581955774904,2424150,0,1,0
1581955775004,2424077,0,1,0
1581955775105,2424013,0,1,0
1581955775204,2423957,0,1,0
1581955775305,2424043,0,1,0
1581955775404,2423973,0,1,0
1581955775505,2423797,0,1,0
1581955775604,2423669,0,1,0
1581955775705,2423546,0,1,0
1581955775804,2423468,0,1,0
1581955775905,2423391,0,1,0
1581955776004,2423431,0,1,0
1581955776105,2423385,0,1,0
1581955776205,2423248,0,1,0
1581955776305,2423137,0,1,0
1581955776403,2422952,0,1,0
1581955776504,2422903,0,1,0
1581955776604,2422866,0,1,0
1581955776704,2422845,0,1,0
1581955776804,2422706,0,1,0
1581955776904,2422723,0,1,0
1581955777004,2422537,0,1,0
1581955777105,2422390,0,1,0
1581955777204,2422545,0,1,0
1581955777305,2422399,0,1,0
1581955777404,2422390,0,1,0
1581955777505,2422380,0,1,0
1581955777604,2422127,0,1,0
1581955777705,2421920,0,1,0
1581955777804,2421855,0,1,0
1581955777905,2421773,0,1,0
1581955778004,2421830,0,1,0
1581955778105,2421704,0,1,0
1581955778204,2421886,0,1,0
1581955778305,2421742,0,1,0
1581955778405,2421573,0,1,0
1581955778506,2421589,0,1,0
1581955778605,2421521,0,1,0
1581955778707,2421495,0,1,0
1581955778807,2421591,0,1,0
1581955778908,2421764,0,1,0
1581955779006,2421742,0,1,0
1581955779107,2421703,0,1,0
1581955779205,2421746,0,1,0
1581955779306,2421685,0,1,0
1581955779405,2421743,0,1,0
1581955779506,2421946,0,1,0
1581955779605,2421907,0,1,0
1581955779706,2422137,0,1,0
1581955779806,2422359,0,1,0
1581955779906,2422419,0,1,0
1581955780006,2422398,0,1,0
1581955780107,2422544,0,1,0
1581955780206,2422624,0,1,0
1581955780306,2422729,0,1,0
1581955780406,2422805,0,1,0
1581955780507,2423035,0,1,0
1581955780606,2423263,0,1,0
1581955780709,2423382,0,1,0
1581955780806,2423460,0,1,0
1581955780907,2423555,0,1,0
1581955781006,2423821,0,1,0
1581955781109,2423967,0,1,0
1581955781207,2424204,0,1,0
1581955781307,2424367,0,1,0
1581955781407,2424634,0,1,0
1581955781507,2424698,0,1,0
1581955781617,2424783,0,1,0
1581955781718,2424951,0,1,0
1581955781818,2425098,0,1,0
1581955781918,2425253,0,1,0
1581955782017,2425454,0,1,0
1581955782118,2425728,0,1,0
1581955782218,2425726,0,1,0
1581955782318,2426190,0,1,0
1581955782418,2426095,0,1,0
1581955782518,2426171,0,1,0
1581955782618,2426311,0,1,0
1581955782718,2426467,0,1,0
1581955782818,2426590,0,1,0
1581955782918,2426746,0,1,0
1581955783018,2427076,0,1,0
1581955783119,2427120,0,1,0
1581955783218,2427096,0,1,0
1581955783319,2427435,0,1,0
1581955783418,2427405,0,1,0
1581955783520,2427560,0,1,0
1581955783618,2427745,0,1,0
1581955783719,2427837,0,1,0
1581955783818,2427978,0,1,0
1581955783919,2427990,0,1,0
1581955784019,2427977,0,1,0
1581955784121,2428030,0,1,0
1581955784219,2428215,0,1,0
1581955784319,2428441,0,1,0
1581955784409,2428559,0,1,0
1581955784510,2428620,0,1,0
1581955784609,2428776,0,1,0
1581955784710,2428657,0,1,0
1581955784809,2428631,0,1,0
1581955784910,2428618,0,1,0
1581955785009,2428662,0,1,0
1581955785110,2428614,0,1,0
1581955785209,2428746,0,1,0
1581955785310,2428864,0,1,0
1581955785409,2428858,0,1,0
1581955785510,2428733,0,1,0
1581955785609,2428476,0,1,0
1581955785710,2428478,0,1,0
1581955785810,2428317,0,1,0
1581955785910,2428302,0,1,0
1581955786010,2428419,0,1,0
1581955786110,2428207,0,1,0
1581955786210,2428041,0,1,0
1581955786310,2427922,0,1,0
1581955786410,2427655,0,1,0
1581955786511,2427654,0,1,0
1581955786610,2427484,0,1,0
1581955786711,2427423,0,1,0
1581955786811,2427380,0,1,0
1581955786911,2427336,0,1,0
1581955787011,2427016,0,1,0
1581955787111,2426978,0,1,0
1581955787211,2426668,0,1,0
1581955787312,2426607,0,1,0
1581955787411,2426539,0,1,0
1581955787511,2426521,0,1,0
1581955787611,2426545,0,1,0
1581955787711,2426584,0,1,0
1581955787822,2426323,0,1,0
1581955787922,2426011,0,1,0
1581955788021,2426030,0,1,0
1581955788122,2425937,0,1,0
1581955788222,2425869,0,1,0
1581955788322,2425945,0,1,0
1581955788421,2425891,0,1,0
1581955788522,2426119,0,1,0
1581955788622,2426052,0,1,0
1581955788723,2425976,0,1,0
1581955788822,2425984,0,1,0
1581955788922,2426020,0,1,0
1581955789022,2426131,0,1,0
1581955789123,2426245,0,1,0
1581955789222,2426425,0,1,0
1581955789323,2426482,0,1,0
1581955789412,2426571,0,1,0
1581955789513,2426411,0,1,0
1581955789612,2426505,0,1,0
1581955789713,2426593,0,1,0
1581955789812,2426757,0,1,0
1581955789913,2427013,0,1,0
1581955790012,2427061,0,1,0
1581955790113,2427365,0,1,0
1581955790212,2427302,0,1,0
1581955790313,2427447,0,1,0
1581955790413,2427482,0,1,0
1581955790513,2427550,0,1,0
1581955790613,2427851,0,1,0
1581955790714,2427916,0,1,0
1581955790813,2428229,0,1,0
1581955790914,2428342,0,1,0
1581955791013,2428535,0,1,0
1581955791114,2428587,0,1,0
1581955791215,2428613,0,1,0
1581955791315,2428795,0,1,0
1581955791414,2429067,0,1,0
1581955791526,2429286,0,1,0
1581955791614,2429475,0,1,0
1581955791725,2429787,0,1,0
1581955791825,2429839,0,1,0
1581955791925,2429993,0,1,0
1581955792024,2430146,0,1,0
1581955792125,2430296,0,1,0
1581955792224,2430415,0,1,0
1581955792325,2430594,0,1,0
1581955792424,2430786,0,1,0
1581955792525,2430916,0,1,0
1581955792624,2431162,0,1,0
1581955792727,2431217,0,1,0
1581955792824,2431330,0,1,0
1581955792925,2431527,0,1,0
1581955793025,2431574,0,1,0
1581955793126,2431626,0,1,0
1581955793225,2431961,0,1,0
1581955793325,2432094,0,1,0
1581955793425,2432314,0,1,0
1581955793526,2432224,0,1,0
1581955793625,2432396,0,1,0
1581955793726,2432436,0,1,0
1581955793826,2432555,0,1,0
1581955793926,2432839,0,1,0
1581955794025,2432854,0,1,0
1581955794126,2433067,0,1,0
1581955794225,2433123,0,1,0
1581955794327,2432895,0,1,0
1581955794425,2432615,0,1,0
1581955794526,2432543,0,1,0
1581955794626,2432603,0,1,0
1581955794727,2432572,0,1,0
1581955794826,2432756,0,1,0
1581955794917,2433301,0,1,0
1581955795017,2433896,0,1,0
1581955795118,2434451,0,1,0
1581955795217,2434825,0,1,0
1581955795317,2434856,0,1,0
1581955795417,2435089,0,1,0
1581955795517,2435071,0,1,0
1581955795617,2435353,0,1,0
1581955795717,2435528,0,1,0
1581955795817,2435435,0,1,0
1581955795918,2435365,0,1,0
1581955796018,2435511,0,1,0
1581955796118,2435417,0,1,0
1581955796218,2435599,0,1,0
1581955796319,2435600,0,1,0
1581955796418,2435862,0,1,0
1581955796519,2435928,0,1,0
1581955796618,2436012,0,1,0
1581955796719,2436232,0,1,0
1581955796819,2436184,0,1,0
1581955796919,2436134,0,1,0
1581955797018,2436063,0,1,0
1581955797119,2436309,0,1,0
1581955797219,2436325,0,1,0
1581955797320,2436372,0,1,0
1581955797419,2436545,0,1,0
1581955797520,2436566,0,1,0
1581955797619,2436494,0,1,0
1581955797719,2436525,0,1,0
1581955797819,2436602,0,1,0
1581955797920,2436666,0,1,0
1581955798022,2436637,0,1,0
1581955798122,2436864,0,1,0
1581955798221,2436856,0,1,0
1581955798322,2436887,0,1,0
1581955798421,2436950,0,1,0
1581955798531,2436866,0,1,0
1581955798630,2436893,0,1,0
1581955798730,2436955,0,1,0
1581955798830,2437091,0,1,0
1581955798930,2437162,0,1,0
1581955799030,2437075,0,1,0
1581955799131,2437009,0,1,0
1581955799230,2437005,0,1,0
1581955799321,2437095,0,1,0
1581955799420,2437086,0,1,0
1581955799521,2437100,0,1,0
1581955799620,2437329,0,1,0
1581955799720,2437350,0,1,0
1581955799820,2437382,0,1,0
1581955799921,2437219,0,1,0
1581955800020,2437122,0,1,0
1581955800121,2437111,0,1,0
1581955800221,2437432,0,1,0
1581955800321,2437147,0,1,0
1581955800421,2437282,0,1,0
1581955800521,2437113,0,1,0
1581955800621,2436892,0,1,0
1581955800721,2436702,0,1,0
1581955800822,2436607,0,1,0
1581955800921,2436468,0,1,0
1581955801022,2436402,0,1,0
1581955801132,2436296,0,1,0
1581955801232,2436557,0,1,0
1581955801331,2436642,0,1,0
1581955801432,2436779,0,1,0
1581955801532,2436282,0,1,0
1581955801632,2436145,0,1,0
1581955801732,2435695,0,1,0
1581955801832,2435486,0,1,0
1581955801932,2435178,0,1,0
1581955802033,2434916,0,1,0
1581955802132,2434701,0,1,0
1581955802233,2434324,0,1,0
1581955802332,2434285,0,1,0
1581955802433,2433974,0,1,0
1581955802532,2433860,0,1,0
1581955802633,2433828,0,1,0
1581955802733,2433816,0,1,0
1581955802833,2433349,0,1,0
1581955802933,2432677,0,1,0
1581955803033,2432827,0,1,0
1581955803133,2432812,0,1,0
1581955803233,2433115,0,1,0
1581955803333,2433309,0,1,0
1581955803433,2433524,0,1,0
1581955803533,2433413,0,1,0
1581955803634,2433634,0,1,0
1581955803733,2433643,0,1,0
1581955803834,2433252,0,1,0
1581955803933,2432807,0,1,0
1581955804034,2432960,0,1,0
1581955804133,2433119,0,1,0
1581955804234,2433218,0,1,0
1581955804323,2433089,0,1,0
1581955804424,2433128,0,1,0
1581955804524,2433246,0,1,0
1581955804624,2433155,0,1,0
1581955804724,2433239,0,1,0
1581955804824,2433662,0,1,0
1581955804924,2433932,0,1,0
1581955805025,2433828,0,1,0
1581955805124,2433765,0,1,0
1581955805225,2433827,0,1,0
1581955805324,2433955,0,1,0
1581955805425,2433851,0,1,0
1581955805524,2433985,0,1,0
1581955805625,2433772,0,1,0
1581955805724,2433922,0,1,0
1581955805825,2434128,0,1,0
1581955805925,2434402,0,1,0
1581955806025,2434301,0,1,0
1581955806125,2434494,0,1,0
1581955806225,2434752,0,1,0
1581955806335,2434890,0,1,0
1581955806425,2435097,0,1,0
1581955806526,2435152,0,1,0
1581955806627,2435114,0,1,0
1581955806725,2435371,0,1,0
1581955806826,2435119,0,1,0
1581955806925,2435289,0,1,0
1581955807026,2435641,0,1,0
1581955807125,2436046,0,1,0
1581955807226,2436219,0,1,0
1581955807326,2436399,0,1,0
1581955807426,2436353,0,1,0
1581955807525,2436400,0,1,0
1581955807626,2436413,0,1,0
1581955807726,2436645,0,1,0
1581955807826,2436804,0,1,0
1581955807926,2436705,0,1,0
1581955808027,2436602,5,1,d
1581955808136,2436728,5,1,d
1581955808237,2436729,5,1,d
1581955808336,2436717,5,1,d
1581955808438,2436853,5,1,d
1581955808537,2436788,5,1,d
1581955808638,2436716,5,1,d
1581955808737,2436758,5,1,d
1581955808837,2436721,5,1,d
1581955808927,2436816,5,1,d
1581955809027,2436756,5,1,d
1581955809128,2436932,5,1,d
1581955809227,2436774,5,1,d
1581955809327,2436888,5,1,d
1581955809427,2436712,5,1,d
1581955809527,2436627,5,1,d
1581955809628,2436664,5,1,d
1581955809727,2436684,5,1,d
1581955809828,2436718,5,1,d
1581955809928,2436841,5,1,d
1581955810028,2436803,5,1,d
1581955810127,2436704,5,1,d
1581955810228,2436611,5,1,d
1581955810327,2436612,5,1,d
1581955810428,2436430,5,1,d
1581955810528,2436649,5,1,d
1581955810628,2436619,5,1,d
1581955810728,2436623,5,1,d
1581955810828,2436695,5,1,d
1581955810928,2436439,5,1,d
1581955811028,2436429,5,1,d
1581955811128,2436335,5,1,d
1581955811229,2436352,5,1,d
1581955811328,2436412,5,1,d
1581955811429,2436302,5,1,d
1581955811528,2436494,5,1,d
1581955811629,2436431,5,1,d
1581955811738,2436429,5,1,d
1581955811840,2436386,5,1,d
1581955811939,2436387,5,1,d
1581955812039,2436396,5,1,d
1581955812140,2436368,5,1,d
1581955812239,2436398,5,1,d
1581955812339,2436513,5,1,d
1581955812440,2436228,5,1,d
1581955812539,2436175,5,1,d
1581955812640,2436110,5,1,d
1581955812739,2436131,5,1,d
1581955812840,2436111,5,1,d
1581955812939,2436022,5,1,d
1581955813040,2436179,5,1,d
1581955813140,2436263,5,1,d
1581955813240,2436158,5,1,d
1581955813339,2436057,5,1,d
1581955813440,2436075,5,1,d
1581955813540,2435796,5,1,d
1581955813640,2435792,5,1,d
1581955813740,2435803,5,1,d
1581955813840,2435695,5,1,d
1581955813940,2435687,5,1,d
1581955814041,2435561,5,1,d
1581955814140,2435396,5,1,d
1581955814241,2435232,5,1,d
1581955814330,2434991,5,1,d
1581955814431,2434911,5,1,d
1581955814530,2434747,5,1,d
1581955814631,2434735,5,1,d
1581955814730,2434832,5,1,d
1581955814831,2434810,5,1,d
1581955814930,2434606,5,1,d
1581955815032,2434592,5,1,d
1581955815131,2434694,5,1,d
1581955815231,2434589,5,1,d
1581955815331,2434505,5,1,d
1581955815431,2434128,5,1,d
1581955815531,2433756,5,1,d
1581955815631,2433847,5,1,d
1581955815731,2433517,5,1,d
1581955815832,2433303,5,1,d
1581955815931,2433300,5,1,d
1581955816032,2432950,5,1,d
1581955816131,2432860,5,1,d
1581955816232,2432887,5,1,d
1581955816341,2432672,5,1,d
1581955816442,2432345,5,1,d
1581955816542,2431900,5,1,d
1581955816642,2431409,5,1,d
1581955816742,2431303,5,1,d
1581955816843,2431253,5,1,d
1581955816942,2430893,5,1,d
1581955817043,2430639,5,1,d
1581955817142,2430379,5,1,d
1581955817243,2430554,5,1,d
1581955817343,2430583,5,1,d
1581955817443,2430592,5,1,d
1581955817542,2430338,5,1,d
1581955817643,2429999,5,1,d
1581955817742,2430102,5,1,d
1581955817844,2429918,5,1,d
1581955817943,2429632,5,1,d
1581955818043,2429334,5,1,d
1581955818143,2429103,5,1,d
1581955818243,2428740,5,1,d
1581955818343,2428530,5,1,d
1581955818444,2428426,5,1,d
1581955818580,2428290,5,1,d
1581955818633,2428037,5,1,d
1581955818733,2427741,5,1,d
1581955818834,2427446,5,1,d
1581955818933,2427191,5,1,d
1581955819034,2426951,0,1,0
1581955819133,2426802,0,1,0
1581955819234,2426852,0,1,0
1581955819333,2426771,0,1,0
1581955819434,2426753,0,1,0
1581955819533,2426346,0,1,0
1581955819634,2426111,0,1,0
1581955819734,2425951,0,1,0
1581955819834,2425681,0,1,0
1581955819934,2425693,0,1,0
1581955820034,2425627,0,1,0
1581955820134,2425523,0,1,0
1581955820235,2425491,0,1,0
1581955820334,2425200,0,1,0
1581955820435,2425176,0,1,0
1581955820534,2425137,0,1,0
1581955820634,2425098,0,1,0
1581955820733,2425208,0,1,0
1581955820834,2425118,0,1,0
1581955820933,2425091,0,1,0
1581955821034,2424860,0,1,0
1581955821133,2424692,0,1,0
1581955821234,2424715,0,1,0
1581955821333,2424667,0,1,0
1581955821434,2424707,0,1,0
1581955821533,2424841,0,1,0
1581955821634,2424893,0,1,0
1581955821733,2424743,0,1,0
1581955821834,2424604,0,1,0
1581955821934,2424653,0,1,0
1581955822034,2424486,0,1,0
1581955822134,2424486,0,1,0
1581955822234,2424608,0,1,0
1581955822334,2424668,0,1,0
1581955822445,2424758,0,1,0
1581955822544,2424703,0,1,0
1581955822645,2424837,0,1,0
1581955822745,2424624,0,1,0
1581955822845,2424584,0,1,0
1581955822944,2424564,0,1,0
1581955823045,2424615,0,1,0
1581955823145,2424778,0,1,0
1581955823245,2424850,0,1,0
1581955823345,2424816,0,1,0
1581955823445,2424883,0,1,0
1581955823545,2424669,0,1,0
1581955823645,2424758,0,1,0
1581955823745,2424906,0,1,0
1581955823847,2424859,0,1,0
1581955823945,2425031,0,1,0
1581955824046,2424920,0,1,0
1581955824145,2424941,0,1,0
1581955824246,2424768,0,1,0
1581955824335,2424756,0,1,0
1581955824436,2424730,0,1,0
1581955824536,2424791,0,1,0
1581955824636,2424859,0,1,0
1581955824736,2424936,0,1,0
1581955824837,2424953,0,1,0
1581955824936,2424803,0,1,0
1581955825036,2424680,0,1,0
1581955825137,2424564,0,1,0
1581955825237,2424629,0,1,0
1581955825336,2424535,0,1,0
1581955825437,2424525,0,1,0
1581955825536,2424685,0,1,0
1581955825637,2424493,0,1,0
1581955825736,2424428,0,1,0
1581955825837,2424361,0,1,0
1581955825936,2424295,0,1,0
1581955826038,2424316,0,1,0
1581955826138,2424243,0,1,0
1581955826238,2424207,0,1,0
1581955826338,2424227,0,1,0
1581955826438,2423832,0,1,0
1581955826548,2423859,0,1,0
1581955826648,2423779,0,1,0
1581955826749,2423628,0,1,0
1581955826849,2423667,0,1,0
1581955826948,2423710,0,1,0
1581955827048,2423797,0,1,0
1581955827149,2423858,0,1,0
1581955827248,2423435,0,1,0
1581955827348,2423380,0,1,0
1581955827448,2423124,0,1,0
1581955827547,2423114,0,1,0
1581955827648,2423136,0,1,0
1581955827748,2423113,0,1,0
1581955827848,2423150,0,1,0
1581955827938,2423089,0,1,0
1581955828038,2422928,0,1,0
1581955828138,2422842,0,1,0
1581955828238,2422581,0,1,0
1581955828338,2422417,0,1,0
1581955828439,2422400,0,1,0
1581955828538,2422476,0,1,0
1581955828639,2422466,0,1,0
1581955828738,2422296,0,1,0
1581955828839,2422239,0,1,0
1581955828938,2422075,0,1,0
1581955829039,2421847,0,1,0
1581955829139,2421515,0,1,0
1581955829239,2421464,0,1,0
1581955829339,2421629,0,1,0
1581955829439,2421754,0,1,0
1581955829539,2421636,0,1,0
1581955829639,2421431,0,1,0
1581955829739,2421251,0,1,0
1581955829840,2421163,0,1,0
1581955829939,2421042,0,1,0
1581955830040,2421059,0,1,0
1581955830139,2420942,0,1,0
1581955830240,2421058,0,1,0
1581955830339,2420996,0,1,0
1581955830440,2420774,0,1,0
1581955830539,2420550,0,1,0
1581955830640,2420309,0,1,0
1581955830740,2420151,0,1,0
1581955830840,2420327,0,1,0
1581955830950,2420145,0,1,0
1581955831050,2420156,0,1,0
1581955831152,2420191,0,1,0
1581955831251,2420067,0,1,0
1581955831350,2419898,0,1,0
1581955831451,2419906,0,1,0
1581955831550,2419629,0,1,0
1581955831651,2419779,0,1,0
1581955831750,2419647,0,1,0
1581955831851,2419692,0,1,0
1581955831950,2419635,0,1,0
1581955832051,2419867,0,1,0
1581955832151,2420443,0,1,0
1581955832251,2420563,0,1,0
1581955832351,2420894,0,1,0
1581955832452,2420866,0,1,0
1581955832551,2420791,0,1,0
1581955832652,2420880,0,1,0
1581955832751,2421001,0,1,0
1581955832852,2421111,0,1,0
1581955832951,2421062,0,1,0
1581955833052,2421103,0,1,0
1581955833152,2420860,0,1,0
1581955833252,2420969,0,1,0
1581955833351,2421229,0,1,0
1581955833452,2421266,0,1,0
1581955833552,2421406,0,1,0
1581955833653,2420998,0,1,0
1581955833752,2421064,0,1,0
1581955833852,2421249,0,1,0
1581955833952,2420947,0,1,0
1581955834052,2420619,0,1,0
1581955834152,2420455,0,1,0
1581955834253,2420553,0,1,0
1581955834342,2420875,0,1,0
1581955834443,2421196,0,1,0
1581955834542,2421455,0,1,0
1581955834643,2421392,0,1,0
1581955834742,2421208,0,1,0
1581955834843,2421074,0,1,0
1581955834942,2421012,0,1,0
1581955835043,2421406,0,1,0
1581955835143,2421485,0,1,0
1581955835243,2421838,0,1,0
1581955835343,2421926,0,1,0
1581955835443,2422034,0,1,0
1581955835543,2422056,0,1,0
1581955835643,2422218,0,1,0
1581955835743,2422177,0,1,0
1581955835844,2422268,0,1,0
1581955835943,2422531,0,1,0
1581955836044,2422674,2,1,d
1581955836143,2422865,2,1,d
1581955836244,2422984,2,1,d
1581955836353,2422922,2,1,d
1581955836454,2422924,2,1,d
1581955836554,2423033,2,1,d
1581955836654,2423063,2,1,d
1581955836754,2423276,2,1,d
1581955836855,2423378,2,1,d
1581955836954,2423494,2,1,d
1581955837055,2423472,2,1,d
1581955837154,2423383,2,1,d
1581955837255,2423508,2,1,d
1581955837354,2423634,2,1,d
1581955837455,2423728,2,1,d
1581955837554,2423695,2,1,d
1581955837655,2423887,2,1,d
1581955837754,2423971,2,1,d
1581955837855,2423919,2,1,d
1581955837954,2423852,2,1,d
1581955838055,2423840,2,1,d
1581955838155,2423697,2,1,d
1581955838255,2423776,2,1,d
1581955838355,2423770,2,1,d
1581955838456,2424032,2,1,d
1581955838555,2424046,2,1,d
1581955838656,2423924,2,1,d
1581955838755,2423885,2,1,d
1581955838856,2423783,2,1,d
1581955838945,2423777,2,1,d
1581955839046,2423821,2,1,d
1581955839145,2423907,2,1,d
1581955839246,2423939,2,1,d
1581955839345,2424063,2,1,d
1581955839446,2423869,2,1,d
1581955839545,2423901,2,1,d
1581955839646,2423822,2,1,d
1581955839745,2423805,2,1,d
1581955839846,2423722,2,1,d
1581955839946,2423701,2,1,d
1581955840046,2423705,2,1,d
1581955840146,2423841,2,1,d
1581955840247,2424003,2,1,d
1581955840346,2423792,2,1,d
1581955840447,2423824,2,1,d
1581955840546,2423746,2,1,d
1581955840647,2423733,2,1,d
1581955840748,2423752,2,1,d
1581955840847,2423799,2,1,d
1581955840946,2423792,2,1,d
1581955841047,2424015,2,1,d
1581955841148,2423983,2,1,d
1581955841247,2423861,2,1,d
1581955841347,2423953,2,1,d
1581955841447,2423839,2,1,d
1581955841557,2423834,2,1,d
1581955841658,2423828,2,1,d
1581955841757,2424187,2,1,d
1581955841859,2424189,2,1,d
1581955841958,2423945,2,1,d
1581955842058,2423964,0,1,0
1581955842158,2424085,0,1,0
1581955842258,2424111,0,1,0
1581955842358,2424052,0,1,0
1581955842458,2424169,0,1,0
1581955842558,2424293,0,1,0
1581955842659,2424477,0,1,0
1581955842758,2424623,0,1,0
1581955842859,2424633,0,1,0
1581955842958,2424664,0,1,0
1581955843059,2424757,0,1,0
1581955843158,2424927,0,1,0
1581955843259,2424902,0,1,0
1581955843358,2424834,0,1,0
1581955843459,2425001,0,1,0
1581955843559,2425031,0,1,0
1581955843659,2425078,0,1,0
1581955843758,2425015,0,1,0
1581955843859,2424987,0,1,0
1581955843958,2425010,0,1,0
1581955844059,2425234,0,1,0
1581955844160,2425491,0,1,0
1581955844259,2425449,0,1,0
1581955844349,2425512,0,1,0
1581955844449,2425532,0,1,0
1581955844549,2425770,0,1,0
1581955844649,2425956,0,1,0
1581955844749,2426462,0,1,0
1581955844850,2426525,0,1,0
1581955844949,2426677,0,1,0
1581955845050,2426729,0,1,0
1581955845149,2426521,0,1,0
1581955845250,2426274,0,1,0
1581955845349,2426347,0,1,0
1581955845450,2426611,0,1,0
1581955845550,2426741,0,1,0
1581955845650,2426740,0,1,0
1581955845749,2426511,0,1,0
1581955845850,2427292,0,1,0
1581955845950,2427553,0,1,0
1581955846051,2427968,0,1,0
1581955846151,2428276,0,1,0
1581955846251,2428404,0,1,0
1581955846350,2428477,0,1,0
1581955846451,2428584,0,1,0
1581955846575,2428346,0,1,0
1581955846652,2429036,0,1,0
1581955846751,2428891,0,1,0
1581955846852,2428323,0,1,0
1581955846952,2428679,0,1,0
1581955847053,2428756,0,1,0
1581955847152,2428855,0,1,0
1581955847253,2429031,0,1,0
1581955847352,2429082,0,1,0
1581955847453,2429323,0,1,0
1581955847552,2429277,0,1,0
1581955847653,2429181,0,1,0
1581955847752,2429230,0,1,0
1581955847864,2429153,0,1,0
1581955847963,2429446,0,1,0
1581955848063,2429416,0,1,0
1581955848163,2429579,0,1,0
1581955848264,2429565,0,1,0
1581955848363,2429478,0,1,0
1581955848463,2429318,0,1,0
1581955848564,2428789,0,1,0
1581955848663,2428772,0,1,0
1581955848764,2429192,0,1,0
1581955848863,2429571,0,1,0
1581955848964,2429766,0,1,0
1581955849064,2430046,0,1,0
1581955849164,2430505,0,1,0
1581955849264,2430745,0,1,0
1581955849354,2431143,0,1,0
1581955849454,2430890,0,1,0
1581955849554,2430686,0,1,0
1581955849654,2430587,0,1,0
1581955849754,2430750,0,1,0
1581955849854,2430405,0,1,0
1581955849954,2430465,0,1,0
1581955850054,2431142,2,1,d
1581955850155,2431204,2,1,d
1581955850254,2431129,2,1,d
1581955850355,2431784,2,1,d
1581955850454,2431475,2,1,d
1581955850555,2431204,2,1,d
1581955850654,2431238,2,1,d
1581955850755,2431068,2,1,d
1581955850855,2431180,2,1,d
1581955850955,2431419,2,1,d
1581955851054,2431946,2,1,d
1581955851155,2432327,2,1,d
1581955851255,2432303,2,1,d
1581955851355,2432505,2,1,d
1581955851465,2432827,2,1,d
1581955851565,2433342,2,1,d
1581955851666,2433183,2,1,d
1581955851765,2433323,2,1,d
1581955851866,2433719,2,1,d
1581955851965,2433902,2,1,d
1581955852066,2434190,2,1,d
1581955852165,2434868,2,1,d
1581955852266,2435133,2,1,d
1581955852366,2435315,2,1,d
1581955852467,2435325,2,1,d
1581955852566,2435564,2,1,d
1581955852666,2435437,2,1,d
1581955852767,2434893,2,1,d
1581955852867,2434857,2,1,d
1581955852966,2435308,2,1,d
1581955853067,2435554,2,1,d
1581955853167,2435740,2,1,d
1581955853267,2436001,2,1,d
1581955853366,2436257,2,1,d
1581955853467,2436576,2,1,d
1581955853567,2437179,2,1,d
1581955853667,2437420,2,1,d
1581955853767,2437513,2,1,d
1581955853868,2437450,2,1,d
1581955853967,2437635,2,1,d
1581955854067,2437611,2,1,d
1581955854167,2437803,2,1,d
1581955854268,2438158,2,1,d
1581955854367,2438267,2,1,d
1581955854468,2438696,2,1,d
1581955854567,2438964,2,1,d
1581955854668,2439374,2,1,d
1581955854769,2439700,2,1,d
1581955854868,2440039,2,1,d
1581955854957,2440545,2,1,d
1581955855058,2440952,2,1,d
1581955855158,2441228,2,1,d
1581955855258,2440972,2,1,d
1581955855357,2440871,2,1,d
1581955855458,2440789,2,1,d
1581955855558,2440792,2,1,d
1581955855658,2440944,2,1,d
1581955855758,2441277,2,1,d
1581955855858,2441231,2,1,d
1581955855958,2441410,2,1,d
1581955856058,2441397,2,1,d
1581955856158,2441504,2,1,d
1581955856259,2441643,2,1,d
1581955856358,2441798,2,1,d
1581955856459,2441900,2,1,d
1581955856569,2441855,2,1,d
1581955856669,2441891,2,1,d
1581955856769,2441963,2,1,d
1581955856870,2441909,2,1,d
1581955856969,2441870,2,1,d
1581955857069,2441834,2,1,d
1581955857169,2441291,2,1,d
1581955857270,2441446,2,1,d
1581955857369,2441484,2,1,d
1581955857469,2441507,2,1,d
1581955857569,2441612,2,1,d
1581955857670,2441505,2,1,d
1581955857769,2441551,2,1,d
1581955857870,2441761,2,1,d
1581955857960,2441584,2,1,d
1581955858060,2441326,2,1,d
1581955858159,2441433,2,1,d
1581955858260,2441279,2,1,d
1581955858359,2441356,2,1,d
1581955858460,2441435,2,1,d
1581955858560,2441489,2,1,d
1581955858660,2441486,2,1,d
1581955858760,2441105,2,1,d
1581955858861,2441190,2,1,d
1581955858960,2441041,2,1,d
1581955859061,2441114,2,1,d
1581955859160,2441304,2,1,d
1581955859261,2441575,2,1,d
1581955859360,2441756,2,1,d
1581955859461,2441834,2,1,d
1581955859560,2441880,2,1,d
1581955859661,2441837,2,1,d
1581955859760,2441974,2,1,d
1581955859861,2441589,2,1,d
1581955859961,2441368,2,1,d
1581955860061,2441193,2,1,d
1581955860161,2441428,2,1,d
1581955860261,2441747,2,1,d
1581955860361,2442216,2,1,d
1581955860463,2442452,2,1,d
1581955860562,2442556,2,1,d
1581955860663,2442729,2,1,d
1581955860772,2443013,2,1,d
1581955860873,2443262,2,1,d
1581955860972,2443454,2,1,d
1581955861073,2443567,2,1,d
1581955861173,2443841,2,1,d
1581955861273,2443986,2,1,d
1581955861372,2444314,2,1,d
1581955861472,2444753,2,1,d
1581955861572,2445087,2,1,d
1581955861672,2444201,2,1,d
1581955861772,2444527,2,1,d
1581955861872,2444847,2,1,d
1581955861972,2445050,2,1,d
1581955862063,2444899,2,1,d
1581955862162,2444934,2,1,d
1581955862263,2445181,2,1,d
1581955862363,2445394,2,1,d
1581955862463,2445603,2,1,d
1581955862562,2445783,2,1,d
1581955862663,2445975,2,1,d
1581955862762,2445819,2,1,d
1581955862863,2445880,2,1,d
1581955862962,2445997,2,1,d
1581955863063,2446084,2,1,d
1581955863163,2446155,2,1,d
1581955863263,2446292,2,1,d
1581955863363,2446270,2,1,d
1581955863463,2446107,2,1,d
1581955863564,2446281,2,1,d
1581955863673,2446287,2,1,d
1581955863774,2446129,2,1,d
1581955863873,2446079,2,1,d
1581955863974,2446355,2,1,d
1581955864074,2446439,2,1,d
1581955864173,2446521,2,1,d
1581955864274,2446294,2,1,d
1581955864363,2446383,2,1,d
1581955864464,2446221,2,1,d
1581955864564,2446134,2,1,d
1581955864664,2445926,2,1,d
1581955864764,2445960,2,1,d
1581955864865,2446062,2,1,d
1581955864964,2445964,2,1,d
1581955865065,2445897,2,1,d
1581955865164,2445895,2,1,d
1581955865264,2445564,2,1,d
1581955865364,2445624,2,1,d
1581955865465,2445125,2,1,d
1581955865564,2445058,2,1,d
1581955865665,2444961,2,1,d
1581955865764,2445004,2,1,d
1581955865865,2444845,2,1,d
1581955865965,2444699,2,1,d
1581955866065,2444742,2,1,d
1581955866165,2444457,2,1,d
1581955866265,2444329,2,1,d
1581955866375,2444254,2,1,d
1581955866475,2444413,2,1,d
1581955866576,2444652,2,1,d
1581955866675,2444517,2,1,d
1581955866776,2444404,2,1,d
1581955866876,2444430,2,1,d
1581955866976,2444386,2,1,d
1581955867075,2444390,2,1,d
1581955867177,2444220,2,1,d
1581955867277,2443844,2,1,d
1581955867376,2444122,2,1,d
1581955867476,2444381,2,1,d
1581955867576,2444470,2,1,d
1581955867676,2444400,2,1,d
1581955867776,2444290,2,1,d
1581955867877,2444274,2,1,d
1581955867977,2444333,2,1,d
1581955868077,2444366,2,1,d
1581955868177,2444356,2,1,d
1581955868277,2444246,2,1,d
1581955868376,2444297,2,1,d
1581955868477,2444282,2,1,d
1581955868567,2444257,2,1,d
1581955868667,2444140,2,1,d
1581955868768,2444082,2,1,d
1581955868867,2444165,2,1,d
1581955868967,2444092,2,1,d
1581955869067,2443940,2,1,d
1581955869168,2443778,2,1,d
1581955869267,2443792,2,1,d
1581955869367,2443681,2,1,d
1581955869467,2443817,2,1,d
1581955869569,2443709,2,1,d
1581955869668,2443686,2,1,d
1581955869767,2443450,2,1,d
1581955869868,2443292,2,1,d
1581955869967,2443066,2,1,d
1581955870068,2443195,2,1,d
1581955870168,2443101,2,1,d
1581955870268,2443071,2,1,d
1581955870368,2443142,2,1,d
1581955870468,2442762,2,1,d
1581955870568,2442552,2,1,d
1581955870669,2442481,2,1,d
1581955870813,2442441,2,1,d
1581955870869,2442436,2,1,d
1581955871019,2442358,2,1,d
1581955871069,2442479,2,1,d
1581955871168,2442482,2,1,d
1581955871269,2442237,2,1,d
1581955871385,2442206,2,1,d
1581955871469,2441856,2,1,d
1581955871568,2441974,2,1,d
1581955871669,2441903,2,1,d
1581955871768,2441815,2,1,d
1581955871869,2441819,2,1,d
1581955871968,2441882,2,1,d
1581955872069,2441630,2,1,d
1581955872168,2441671,2,1,d
1581955872268,2441399,2,1,d
1581955872369,2441282,2,1,d
1581955872470,2441314,2,1,d
1581955872570,2441298,2,1,d
1581955872670,2441160,2,1,d
1581955872770,2441105,2,1,d
1581955872870,2440837,2,1,d
1581955872969,2440554,2,1,d
1581955873070,2440389,2,1,d
1581955873170,2440230,2,1,d
1581955873270,2440172,2,1,d
1581955873369,2440191,2,1,d
1581955873470,2440064,2,1,d
1581955873569,2440199,2,1,d
1581955873669,2440002,2,1,d
1581955873769,2439891,2,1,d
1581955873870,2439755,2,1,d
1581955873972,2439659,2,1,d
1581955874072,2439669,2,1,d
1581955874171,2439441,2,1,d
1581955874272,2439436,2,1,d
1581955874372,2439522,2,1,d
1581955874472,2439328,2,1,d
1581955874571,2439211,2,1,d
1581955874671,2439027,2,1,d
1581955874770,2438954,2,1,d
1581955874871,2438764,2,1,d
1581955874970,2438717,2,1,d
1581955875071,2438701,2,1,d
1581955875171,2438761,2,1,d
1581955875271,2438670,2,1,d
1581955875370,2438508,2,1,d
1581955875471,2438418,2,1,d
1581955875571,2438219,2,1,d
1581955875671,2438255,2,1,d
1581955875771,2438110,2,1,d
1581955875871,2438138,2,1,d
1581955875971,2438235,2,1,d
1581955876072,2438219,2,1,d
1581955876171,2438146,2,1,d
1581955876272,2438008,2,1,d
1581955876371,2437730,2,1,d
1581955876482,2437633,2,1,d
1581955876582,2437603,2,1,d
1581955876684,2437722,2,1,d
1581955876789,2437677,2,1,d
1581955876873,2437813,2,1,d
1581955876974,2437608,2,1,d
1581955877073,2437513,2,1,d
1581955877172,2437519,2,1,d
1581955877273,2437386,2,1,d
1581955877373,2437398,2,1,d
1581955877472,2437264,2,1,d
1581955877572,2437250,2,1,d
1581955877671,2437420,2,1,d
1581955877771,2437469,2,1,d
1581955877871,2437509,2,1,d
1581955877971,2437547,2,1,d
1581955878071,2437588,2,1,d
1581955878171,2437643,2,1,d
1581955878272,2437862,2,1,d
1581955878371,2437782,2,1,d
1581955878472,2437853,2,1,d
1581955878572,2437919,2,1,d
1581955878672,2437585,2,1,d
1581955878772,2437674,2,1,d
1581955878882,2437496,2,1,d
1581955878982,2437441,2,1,d
1581955879082,2437453,2,1,d
1581955879182,2437345,2,1,d
1581955879283,2437352,2,1,d
1581955879372,2437217,2,1,d
1581955879472,2437065,2,1,d
1581955879572,2436917,2,1,d
1581955879672,2436992,2,1,d
1581955879782,2436987,2,1,d
1581955879883,2437245,2,1,d
1581955879972,2437345,2,1,d
1581955880083,2437525,2,1,d
1581955880182,2437790,2,1,d
1581955880283,2437819,2,1,d
1581955880382,2438038,2,1,d
1581955880483,2437983,2,1,d
1581955880583,2438147,2,1,d
1581955880683,2438314,2,1,d
1581955880773,2438614,2,1,d
1581955880873,2438558,2,1,d
1581955880973,2438601,2,1,d
1581955881073,2438746,2,1,d
1581955881173,2438833,2,1,d
1581955881274,2438842,2,1,d
1581955881373,2439063,2,1,d
1581955881474,2439102,2,1,d
1581955881573,2439218,2,1,d
1581955881674,2439404,2,1,d
1581955881773,2439431,2,1,d
1581955881874,2439479,2,1,d
1581955881973,2439550,2,1,d
1581955882074,2439613,2,1,d
1581955882174,2439726,2,1,d
1581955882274,2439789,2,1,d
1581955882374,2440034,2,1,d
1581955882485,2440166,2,1,d
1581955882584,2440005,2,1,d
1581955882686,2439543,2,1,d
1581955882785,2439173,2,1,d
1581955882885,2439171,2,1,d
1581955882985,2439229,2,1,d
1581955883085,2439764,2,1,d
1581955883185,2440073,2,1,d
1581955883285,2440751,2,1,d
1581955883386,2440972,2,1,d
1581955883486,2441281,2,1,d
1581955883586,2441200,2,1,d
1581955883686,2441673,2,1,d
1581955883786,2441970,2,1,d
1581955883886,2442100,2,1,d
1581955883986,2442261,2,1,d
1581955884086,2442364,2,1,d
1581955884186,2442615,2,1,d
1581955884286,2442994,2,1,d
1581955884377,2443212,2,1,d
1581955884477,2443310,2,1,d
1581955884577,2443439,2,1,d
1581955884677,2443644,2,1,d
1581955884779,2443655,2,1,d
1581955884878,2443794,2,1,d
1581955884977,2443812,2,1,d
1581955885078,2443816,2,1,d
1581955885179,2443838,2,1,d
1581955885278,2443773,2,1,d
1581955885377,2443793,2,1,d
1581955885478,2443903,2,1,d
1581955885578,2443715,2,1,d
1581955885678,2443640,2,1,d
1581955885778,2443843,2,1,d
1581955885878,2443724,2,1,d
1581955885978,2443874,2,1,d
1581955886078,2443803,2,1,d
1581955886188,2443573,2,1,d
1581955886288,2443682,2,1,d
1581955886389,2443569,2,1,d
1581955886488,2443397,2,1,d
1581955886590,2443334,2,1,d
1581955886688,2443294,2,1,d
1581955886789,2443223,2,1,d
1581955886889,2443156,2,1,d
1581955886989,2443113,2,1,d
1581955887089,2442853,2,1,d
1581955887189,2442708,2,1,d
1581955887289,2442616,2,1,d
1581955887389,2442668,2,1,d
1581955887489,2442497,2,1,d
1581955887590,2442468,2,1,d
1581955887689,2442310,2,1,d
1581955887789,2442185,2,1,d
1581955887889,2442085,2,1,d
1581955887980,2441996,2,1,d
1581955888079,2442088,2,1,d
1581955888180,2441975,2,1,d
1581955888279,2441796,2,1,d
1581955888380,2441571,2,1,d
1581955888479,2441367,2,1,d
1581955888580,2441636,2,1,d
1581955888680,2441655,2,1,d
1581955888780,2441765,2,1,d
1581955888880,2441730,2,1,d
1581955888980,2441968,2,1,d
1581955889080,2441939,2,1,d
1581955889181,2441764,2,1,d
1581955889280,2441802,2,1,d
1581955889381,2441914,2,1,d
1581955889480,2441947,2,1,d
1581955889581,2442056,2,1,d
1581955889680,2442212,2,1,d
1581955889781,2442315,2,1,d
1581955889880,2442380,2,1,d
1581955889981,2442405,2,1,d
1581955890080,2442506,2,1,d
1581955890181,2442600,2,1,d
1581955890280,2442550,2,1,d
1581955890381,2442776,2,1,d
1581955890480,2442743,2,1,d
1581955890581,2442673,2,1,d
1581955890681,2442838,2,1,d
1581955890782,2442839,2,1,d
1581955890881,2442775,2,1,d
1581955890981,2442976,2,1,d
1581955891081,2443139,2,1,d
1581955891182,2443268,2,1,d
1581955891281,2443446,2,1,d
1581955891392,2443548,2,1,d
1581955891492,2443670,2,1,d
1581955891592,2443785,2,1,d
1581955891692,2443860,2,1,d
1581955891792,2444077,2,1,d
1581955891892,2444325,2,1,d
1581955891993,2444343,2,1,d
1581955892092,2444365,2,1,d
1581955892193,2444549,2,1,d
1581955892292,2444317,2,1,d
1581955892393,2444491,2,1,d
1581955892492,2444236,2,1,d
1581955892593,2444215,2,1,d
1581955892692,2444543,2,1,d
1581955892793,2444973,2,1,d
1581955892893,2445132,2,1,d
1581955892993,2445085,2,1,d
1581955893093,2445128,2,1,d
1581955893194,2445390,2,1,d
1581955893293,2445833,2,1,d
1581955893393,2446298,2,1,d
1581955893493,2446285,2,1,d
1581955893594,2446466,2,1,d
1581955893693,2446535,2,1,d
1581955893794,2446573,2,1,d
1581955893893,2446602,2,1,d
1581955893994,2446524,2,1,d
1581955894093,2446534,2,1,d
1581955894194,2446669,2,1,d
1581955894293,2446615,2,1,d
1581955894384,2446482,2,1,d
1581955894483,2446432,2,1,d
1581955894586,2446541,2,1,d
1581955894685,2446624,2,1,d
1581955894786,2446624,2,1,d
1581955894885,2446643,2,1,d
1581955894985,2446714,2,1,d
1581955895085,2446853,2,1,d
1581955895185,2446843,2,1,d
1581955895284,2446811,2,1,d
1581955895385,2446557,2,1,d
1581955895484,2446562,2,1,d
1581955895585,2446647,2,1,d
1581955895684,2446506,2,1,d
1581955895785,2446575,2,1,d
1581955895884,2446626,2,1,d
1581955895985,2446653,2,1,d
1581955896084,2446480,2,1,d
1581955896185,2446397,2,1,d
1581955896284,2446301,2,1,d
1581955896385,2446111,2,1,d
1581955896485,2445791,2,1,d
1581955896585,2445693,2,1,d
1581955896685,2445358,2,1,d
1581955896786,2445242,2,1,d
1581955896885,2444899,2,1,d
1581955896996,2444662,2,1,d
1581955897085,2444343,2,1,d
1581955897196,2444037,2,1,d
1581955897295,2443794,2,1,d
1581955897396,2443641,2,1,d
1581955897496,2443228,2,1,d
1581955897596,2443145,2,1,d
1581955897696,2443158,2,1,d
1581955897796,2442964,2,1,d
1581955897896,2442509,2,1,d
1581955897997,2442136,2,1,d
1581955898096,2441824,2,1,d
1581955898197,2441439,2,1,d
1581955898296,2441334,2,1,d
1581955898397,2441170,2,1,d
1581955898496,2441030,2,1,d
1581955898597,2440672,2,1,d
1581955898696,2440365,2,1,d
1581955898798,2440272,2,1,d
1581955898897,2440028,2,1,d
1581955898987,2439840,2,1,d
1581955899086,2439668,2,1,d
1581955899186,2439520,2,1,d
1581955899285,2439501,2,1,d
1581955899386,2439413,2,1,d
1581955899485,2439214,2,1,d
1581955899586,2438942,2,1,d
1581955899685,2438844,2,1,d
1581955899786,2438717,2,1,d
1581955899885,2438653,2,1,d
1581955899986,2438633,2,1,d
1581955900086,2438589,2,1,d
1581955900186,2438471,2,1,d
1581955900286,2438396,2,1,d
1581955900386,2438200,2,1,d
1581955900486,2438177,2,1,d
1581955900587,2437995,2,1,d
1581955900686,2437889,2,1,d
1581955900789,2437814,2,1,d
1581955900886,2437922,2,1,d
1581955900987,2437899,2,1,d
1581955901086,2437801,2,1,d
1581955901189,2437826,2,1,d
1581955901287,2437796,2,1,d
1581955901387,2437745,2,1,d
1581955901497,2437742,2,1,d
1581955901598,2437787,2,1,d
1581955901697,2437907,2,1,d
1581955901798,2437867,2,1,d
1581955901897,2437774,2,1,d
1581955901998,2437687,2,1,d
1581955902097,2437566,2,1,d
1581955902198,2437486,2,1,d
1581955902297,2437706,2,1,d
1581955902399,2437644,2,1,d
1581955902498,2437546,2,1,d
1581955902598,2437610,2,1,d
1581955902698,2437719,2,1,d
1581955902799,2437630,2,1,d
1581955902898,2437563,2,1,d
1581955902998,2437565,2,1,d
1581955903098,2437736,2,1,d
1581955903199,2437840,2,1,d
1581955903298,2437691,2,1,d
1581955903399,2437482,2,1,d
1581955903499,2437408,2,1,d
1581955903599,2437106,2,1,d
1581955903698,2436942,2,1,d
1581955903799,2436912,2,1,d
1581955903898,2436931,2,1,d
1581955903999,2436554,2,1,d
1581955904098,2436556,2,1,d
1581955904200,2436055,2,1,d
1581955904299,2435914,2,1,d
1581955904389,2436385,2,1,d
1581955904489,2436558,2,1,d
1581955904589,2436819,2,1,d
1581955904688,2436818,2,1,d
1581955904789,2437103,2,1,d
1581955904889,2437200,2,1,d
1581955904989,2437275,2,1,d
1581955905089,2437281,2,1,d
1581955905190,2437438,2,1,d
1581955905289,2437442,2,1,d
1581955905390,2437439,2,1,d
1581955905490,2437549,2,1,d
1581955905590,2437616,2,1,d
1581955905689,2437356,2,1,d
1581955905790,2437229,2,1,d
1581955905889,2437299,2,1,d
1581955905990,2437457,2,1,d
1581955906090,2437406,2,1,d
1581955906191,2437531,2,1,d
1581955906290,2437668,2,1,d
1581955906390,2437699,2,1,d
1581955906490,2437578,2,1,d
1581955906612,2437499,2,1,d
1581955906690,2437360,2,1,d
1581955906791,2437042,2,1,d
1581955906891,2437049,2,1,d
1581955906991,2437087,2,1,d
1581955907090,2437360,2,1,d
1581955907191,2437687,2,1,d
1581955907291,2438057,2,1,d
1581955907391,2438430,2,1,d
1581955907490,2438852,2,1,d
1581955907591,2438958,2,1,d
1581955907691,2439156,2,1,d
1581955907791,2439135,2,1,d
1581955907901,2439016,2,1,d
1581955908003,2438819,2,1,d
1581955908101,2438851,2,1,d
1581955908202,2438701,2,1,d
1581955908301,2438612,2,1,d
1581955908402,2438649,2,1,d
1581955908501,2438554,2,1,d
1581955908602,2438698,2,1,d
1581955908701,2438662,2,1,d
1581955908803,2438629,2,1,d
1581955908902,2438716,2,1,d
1581955909002,2438787,2,1,d
1581955909102,2438827,2,1,d
1581955909203,2438754,2,1,d
1581955909302,2438997,2,1,d
1581955909393,2438995,2,1,d
1581955909492,2438998,2,1,d
1581955909592,2439115,2,1,d
1581955909692,2439109,2,1,d
1581955909793,2439295,2,1,d
1581955909892,2439480,2,1,d
1581955909993,2439591,2,1,d
1581955910092,2439774,2,1,d
1581955910193,2439813,2,1,d
1581955910292,2439764,2,1,d
1581955910393,2439814,2,1,d
1581955910493,2439927,2,1,d
1581955910593,2439900,2,1,d
1581955910693,2440127,2,1,d
1581955910793,2440166,2,1,d
1581955910893,2440389,2,1,d
1581955910994,2440537,2,1,d
1581955911093,2440503,2,1,d
1581955911204,2440701,2,1,d
1581955911293,2440660,2,1,d
1581955911404,2440758,2,1,d
1581955911504,2440568,2,1,d
1581955911604,2440783,2,1,d
1581955911703,2441099,2,1,d
1581955911804,2441078,2,1,d
1581955911904,2441037,2,1,d
1581955912004,2441184,2,1,d
1581955912104,2441066,2,1,d
1581955912204,2441117,2,1,d
1581955912304,2441263,2,1,d
1581955912405,2441345,2,1,d
1581955912504,2441629,2,1,d
1581955912605,2441506,2,1,d
1581955912705,2441321,2,1,d
1581955912805,2441185,2,1,d
1581955912904,2441306,2,1,d
1581955913005,2441270,0,0,0
1581955913104,2441454,0,0,0
1581955913205,2441695,0,0,0
1581955913305,2441774,0,0,0
1581955913405,2441801,0,0,0
1581955913505,2441860,0,0,0
1581955913605,2441832,0,0,0
1581955913705,2441673,0,0,0
1581955913805,2441510,0,0,0
1581955913905,2441623,0,0,0
1581955914006,2441442,0,0,0
1581955914105,2441438,0,0,0
1581955914206,2441272,0,0,0
1581955914305,2441396,0,0,0
1581955914396,2441054,0,0,0
1581955914495,2440804,0,0,0
1581955914596,2440772,0,0,0
1581955914695,2440629,0,0,0
1581955914798,2440575,0,0,0
1581955914896,2440439,0,0,0
1581955914996,2440316,0,0,0
1581955915096,2440227,0,0,0
1581955915198,2439791,0,0,0
1581955915296,2439692,0,0,0
1581955915397,2439935,0,0,0
1581955915497,2439701,0,0,0
1581955915597,2439446,0,0,0
1581955915697,2439290,0,0,0
1581955915807,2438833,0,0,0
1581955915897,2438672,0,0,0
1581955915997,2438572,0,0,0
1581955916098,2438672,0,0,0
1581955916197,2438807,0,0,0
1581955916308,2438745,0,0,0
1581955916409,2438946,0,0,0
1581955916509,2438786,0,0,0
1581955916608,2438498,0,0,0
1581955916709,2438450,0,0,0
1581955916808,2438474,0,0,0
1581955916909,2438489,0,0,0
1581955917009,2438611,0,0,0
1581955917109,2438636,0,0,0
1581955917209,2438453,0,0,0
1581955917310,2438296,0,0,0
1581955917409,2438246,0,0,0
1581955917510,2438183,0,0,0
1581955917609,2438124,0,0,0
1581955917710,2438120,0,0,0
1581955917809,2438329,0,0,0
1581955917913,2438133,0,0,0
1581955917999,2438312,0,0,0
1581955918099,2438243,0,0,0
1581955918199,2438357,0,0,0
1581955918300,2438428,0,0,0
1581955918399,2438574,0,0,0
1581955918500,2438669,0,0,0
1581955918600,2438932,0,0,0
1581955918700,2438977,0,0,0
1581955918800,2439090,0,0,0
1581955918900,2439132,0,0,0
1581955919000,2439243,0,0,0
1581955919100,2439422,0,0,0
1581955919200,2439622,0,0,0
1581955919301,2439799,0,0,0
1581955919400,2439772,0,0,0
1581955919499,2440052,0,0,0
1581955919599,2440230,0,0,0
1581955919699,2440311,0,0,0
1581955919799,2440467,0,0,0
1581955919899,2440667,0,0,0
1581955919999,2440884,0,0,0
1581955920100,2441218,0,0,0
1581955920199,2441320,0,0,0
1581955920300,2441459,0,0,0
1581955920399,2441622,0,0,0
1581955920500,2441959,0,0,0
1581955920599,2442133,0,0,0
1581955920700,2442312,0,0,0
1581955920800,2442423,0,0,0
1581955920900,2442808,0,0,0
1581955921000,2442883,0,0,0
1581955921100,2443023,0,0,0
1581955921210,2443209,0,0,0
1581955921311,2443354,0,0,0
1581955921411,2443523,0,0,0
1581955921511,2443868,0,0,0
1581955921610,2443901,0,0,0
1581955921711,2444061,0,0,0
1581955921810,2444295,0,0,0
1581955921911,2444336,0,0,0
1581955922010,2444707,0,0,0
1581955922111,2444800,0,0,0
1581955922210,2444949,0,0,0
1581955922311,2445303,0,0,0
1581955922411,2445461,0,0,0
1581955922512,2445552,0,0,0
1581955922611,2445732,0,0,0
1581955922711,2445916,0,0,0
1581955922811,2445953,0,0,0
1581955922912,2446221,0,0,0
1581955923011,2446481,0,0,0
1581955923112,2446555,0,0,0
1581955923212,2446816,0,0,0
1581955923312,2447098,0,0,0
1581955923411,2447184,0,0,0
1581955923512,2447215,0,0,0
1581955923612,2447272,0,0,0
1581955923712,2447545,0,0,0
1581955923812,2447609,0,0,0
1581955923912,2447747,0,0,0
1581955924012,2447845,0,0,0
1581955924112,2447953,0,0,0
1581955924212,2448254,0,0,0
1581955924312,2448237,0,0,0
1581955924402,2448308,0,0,0
1581955924503,2448434,0,0,0
1581955924602,2448524,0,0,0
1581955924703,2448612,0,0,0
1581955924802,2448674,0,0,0
1581955924903,2448822,0,0,0
1581955925002,2448817,0,0,0
1581955925103,2448892,0,0,0
1581955925203,2449073,0,0,0
1581955925303,2448991,0,0,0
1581955925402,2449224,0,0,0
1581955925503,2449163,0,0,0
1581955925613,2449322,0,0,0
1581955925713,2449458,0,0,0
1581955925813,2449464,0,0,0
1581955925914,2449443,0,0,0
1581955926013,2449485,0,0,0
1581955926114,2449546,0,0,0
1581955926213,2449537,0,0,0
1581955926314,2449581,0,0,0
1581955926413,2449418,0,0,0
1581955926514,2449547,0,0,0
1581955926614,2449436,0,0,0
1581955926714,2449599,0,0,0
1581955926814,2449587,0,0,0
1581955926915,2449491,0,0,0
1581955927014,2449521,0,0,0
1581955927114,2449497,0,0,0
1581955927214,2449440,0,0,0
1581955927315,2449448,0,0,0
1581955927414,2449506,0,0,0
1581955927515,2449374,0,0,0
1581955927614,2449280,0,0,0
1581955927715,2449215,0,0,0
1581955927814,2449363,0,0,0
1581955927915,2449324,0,0,0
1581955928015,2449188,0,0,0
1581955928115,2449246,0,0,0
1581955928214,2449107,0,0,0
1581955928317,2449141,0,0,0
1581955928416,2449202,0,0,0
1581955928517,2449221,0,0,0
1581955928606,2449118,0,0,0
1581955928706,2448933,0,0,0
1581955928806,2448846,0,0,0
1581955928906,2448808,0,0,0
1581955929006,2448773,0,0,0
1581955929106,2448832,0,0,0
1581955929206,2448640,0,0,0
1581955929306,2448589,0,0,0
1581955929405,2448476,0,0,0
1581955929506,2448336,0,0,0
1581955929605,2448517,0,0,0
1581955929706,2448285,0,0,0
1581955929805,2448381,0,0,0
1581955929906,2448206,0,0,0
1581955930006,2448090,0,0,0
1581955930106,2448063,0,0,0
1581955930206,2448072,0,0,0
1581955930306,2447999,0,0,0
1581955930406,2447984,0,0,0
1581955930507,2448027,0,0,0
1581955930606,2447912,0,0,0
1581955930707,2447882,0,0,0
1581955930807,2447787,0,0,0
1581955930907,2447695,0,0,0
1581955931006,2447634,0,0,0
1581955931107,2447530,0,0,0
1581955931217,2447601,0,0,0
1581955931307,2447553,0,0,0
1581955931417,2447421,0,0,0
1581955931518,2447426,0,0,0
1581955931617,2447380,0,0,0
1581955931718,2447383,0,0,0
1581955931817,2447146,0,0,0
1581955931918,2447205,0,0,0
1581955932017,2447077,0,0,0
1581955932118,2446949,0,0,0
1581955932217,2447014,0,0,0
1581955932318,2446828,0,0,0
1581955932422,2446633,0,0,0
1581955932518,2446677,0,0,0
1581955932618,2446560,0,0,0
1581955932718,2446618,0,0,0
1581955932818,2446387,0,0,0
1581955932918,2446408,0,0,0
1581955933018,2446237,0,0,0
1581955933118,2446180,0,0,0
1581955933218,2446107,0,0,0
1581955933319,2446154,0,0,0
1581955933418,2446078,0,0,0
1581955933519,2446091,0,0,0
1581955933618,2445987,0,0,0
1581955933719,2445945,0,0,0
1581955933818,2445703,0,0,0
1581955933919,2445629,0,0,0
1581955934018,2445615,0,0,0
1581955934119,2445550,0,0,0
1581955934220,2445465,0,0,0
1581955934319,2445426,0,0,0
1581955934409,2445262,0,0,0
1581955934509,2445281,0,0,0
1581955934609,2445200,0,0,0
1581955934709,2445085,0,0,0
1581955934809,2445165,0,0,0
1581955934910,2445027,0,0,0
1581955935009,2444929,0,0,0
1581955935109,2444887,0,0,0
1581955935209,2444766,0,0,0
1581955935310,2444688,0,0,0
1581955935409,2444892,0,0,0
1581955935510,2444919,0,0,0
1581955935609,2444689,0,0,0
1581955935710,2444670,0,0,0
1581955935809,2444513,0,0,0
1581955935910,2444504,0,0,0
1581955936010,2444486,0,0,0
1581955936110,2444398,0,0,0
1581955936210,2444320,0,0,0
1581955936321,2444381,0,0,0
1581955936420,2444266,0,0,0
1581955936521,2444147,0,0,0
1581955936620,2443957,0,0,0
1581955936722,2443936,0,0,0
1581955936821,2443907,0,0,0
1581955936921,2443841,0,0,0
1581955937021,2443746,0,0,0
1581955937121,2443705,0,0,0
1581955937221,2443565,0,0,0
1581955937322,2443422,0,0,0
1581955937421,2443461,0,0,0
1581955937521,2443511,0,0,0
1581955937621,2443385,0,0,0
1581955937721,2443377,0,0,0
1581955937821,2443286,0,0,0
1581955937922,2443254,0,0,0
1581955938021,2443244,0,0,0
1581955938122,2443177,0,0,0
1581955938221,2443188,0,0,0
1581955938322,2443144,0,0,0
1581955938421,2443223,0,0,0
1581955938523,2443251,0,0,0
1581955938621,2443122,0,0,0
1581955938722,2443047,0,0,0
1581955938822,2442867,0,0,0
1581955938922,2442824,0,0,0
1581955939022,2442878,0,0,0
1581955939122,2442914,0,0,0
1581955939222,2442866,0,0,0
1581955939323,2442719,0,0,0
1581955939412,2442648,0,0,0
1581955939513,2442572,0,0,0
1581955939612,2442656,0,0,0
1581955939713,2442632,0,0,0
1581955939812,2442512,0,0,0
1581955939913,2442313,0,0,0
1581955940012,2442239,0,0,0
1581955940113,2441993,0,0,0
1581955940212,2441879,0,0,0
1581955940313,2441635,0,0,0
1581955940412,2441355,0,0,0
1581955940513,2441206,0,0,0
1581955940613,2441240,0,0,0
1581955940713,2441156,0,0,0
1581955940813,2441096,0,0,0
1581955940914,2441133,0,0,0
1581955941013,2441110,0,0,0
1581955941114,2441108,0,0,0
1581955941215,2441245,0,0,0
1581955941314,2441371,0,0,0
1581955941414,2441600,0,0,0
1581955941514,2441574,0,0,0
1581955941615,2441726,0,0,0
1581955941714,2441868,0,0,0
1581955941815,2441989,0,0,0
1581955941914,2442017,0,0,0
1581955942015,2442264,0,0,0
1581955942115,2442454,0,0,0
1581955942216,2442477,0,0,0
1581955942315,2442639,0,0,0
1581955942416,2442740,0,0,0
1581955942526,2443037,0,0,0
1581955942626,2443088,0,0,0
1581955942727,2443176,0,0,0
1581955942827,2443285,0,0,0
1581955942926,2442962,0,0,0
1581955943027,2442773,0,0,0
1581955943126,2442654,0,0,0
1581955943227,2442308,0,0,0
1581955943327,2442248,0,0,0
1581955943426,2442108,0,0,0
1581955943527,2442025,0,0,0
1581955943627,2442590,0,0,0
1581955943727,2442703,0,0,0
1581955943827,2443139,0,0,0
1581955943927,2443735,0,0,0
1581955944027,2444122,0,0,0
1581955944127,2443728,0,0,0
1581955944227,2443946,0,0,0
1581955944317,2444682,0,0,0
1581955944419,2444532,0,0,0
1581955944517,2444697,0,0,0
1581955944617,2444513,0,0,0
1581955944717,2444625,0,0,0
1581955944819,2444593,0,0,0
1581955944918,2445238,0,0,0
1581955945017,2445338,0,0,0
1581955945117,2445290,0,0,0
1581955945218,2444939,0,0,0
1581955945318,2446092,0,0,0
1581955945418,2446715,0,0,0
1581955945518,2446503,0,0,0
1581955945618,2447115,0,0,0
1581955945718,2446952,0,0,0
1581955945818,2447300,0,0,0
1581955945918,2447396,0,0,0
1581955946018,2447346,0,0,0
1581955946128,2447366,0,0,0
1581955946230,2447102,0,0,0
1581955946328,2447303,0,0,0
1581955946430,2447651,0,0,0
1581955946529,2447874,0,0,0
1581955946629,2448008,0,0,0
1581955946729,2448274,0,0,0
1581955946829,2448519,0,0,0
1581955946929,2448656,0,0,0
1581955947029,2448603,0,0,0
1581955947129,2448812,0,0,0
1581955947229,2449074,0,0,0
1581955947329,2448962,0,0,0
1581955947429,2449123,0,0,0
1581955947529,2449174,0,0,0
1581955947629,2449074,0,0,0
1581955947729,2449212,0,0,0
1581955947829,2449180,0,0,0
1581955947933,2449316,0,0,0
1581955948020,2449348,0,0,0
1581955948119,2449347,0,0,0
1581955948220,2449314,0,0,0
1581955948320,2449660,0,0,0
1581955948420,2449625,0,0,0
1581955948520,2449506,0,0,0
1581955948620,2449535,0,0,0
1581955948720,2449634,0,0,0
1581955948820,2449574,0,0,0
1581955948920,2449627,0,0,0
1581955949020,2449718,0,0,0
1581955949120,2449742,0,0,0
1581955949220,2449877,0,0,0
1581955949321,2449818,0,0,0
1581955949420,2449762,0,0,0
1581955949521,2449872,0,0,0
1581955949620,2449808,0,0,0
1581955949721,2449888,0,0,0
1581955949821,2449738,0,0,0
1581955949921,2449657,0,0,0
1581955950021,2449670,0,0,0
1581955950121,2449673,0,0,0
1581955950221,2449525,0,0,0
1581955950321,2449622,0,0,0
1581955950421,2449687,0,0,0
1581955950521,2449553,0,0,0
1581955950621,2449345,0,0,0
1581955950721,2449163,0,0,0
1581955950821,2449302,0,0,0
1581955950932,2447835,0,0,0
1581955951032,2447199,0,0,0
1581955951132,2447986,0,0,0
1581955951232,2448598,0,0,0
1581955951332,2448879,0,0,0
1581955951432,2449746,0,0,0
1581955951532,2450593,0,0,0
1581955951632,2451004,0,0,0
1581955951732,2451690,0,0,0
1581955951832,2452423,0,0,0
1581955951932,2452862,0,0,0
1581955952032,2453078,0,0,0
1581955952132,2453131,0,0,0
1581955952232,2453230,0,0,0
1581955952332,2453431,0,0,0
1581955952433,2453821,0,0,0
1581955952533,2454181,0,0,0
1581955952633,2455040,0,0,0
1581955952733,2455316,0,0,0
1581955952833,2455629,0,0,0
1581955952933,2456332,0,0,0
1581955953033,2456626,0,0,0
1581955953133,2456896,0,0,0
1581955953233,2457195,0,0,0
1581955953333,2457517,0,0,0
1581955953433,2457744,0,0,0
1581955953533,2457625,0,0,0
1581955953633,2457624,0,0,0
1581955953733,2457666,0,0,0
1581955953834,2458062,0,0,0
1581955953933,2458370,0,0,0
1581955954034,2458512,0,0,0
1581955954134,2458927,0,0,0
1581955954234,2459202,0,0,0
1581955954324,2459530,0,0,0
1581955954424,2459938,0,0,0
1581955954524,2460382,0,0,0
1581955954624,2460343,0,0,0
1581955954724,2460423,0,0,0
1581955954824,2460889,0,0,0
1581955954924,2461287,0,0,0
1581955955024,2461574,0,0,0
1581955955124,2461817,0,0,0
1581955955225,2462159,0,0,0
1581955955324,2462078,0,0,0
1581955955434,2461782,0,0,0
1581955955535,2461937,0,0,0
1581955955635,2462185,0,0,0
1581955955735,2462342,0,0,0
1581955955835,2462682,0,0,0
1581955955935,2463016,0,0,0
1581955956035,2462918,0,0,0
1581955956135,2462881,0,0,0
1581955956235,2462650,0,0,0
1581955956335,2462541,0,0,0
1581955956435,2462842,0,0,0
1581955956536,2462792,0,0,0
1581955956635,2463004,0,0,0
1581955956735,2463684,0,0,0
1581955956836,2464001,0,0,0
1581955956936,2463802,0,0,0
1581955957036,2463390,0,0,0
1581955957136,2462584,0,0,0
1581955957236,2461940,0,0,0
1581955957336,2462146,0,0,0
1581955957436,2463186,0,0,0
1581955957536,2461786,0,0,0
1581955957636,2461190,0,0,0
1581955957736,2461388,0,0,0
1581955957836,2461607,0,0,0
1581955957936,2461963,0,0,0
1581955958036,2461823,0,0,0
1581955958136,2459719,0,0,0
1581955958236,2457462,0,0,0
1581955958337,2456540,0,0,0
1581955958437,2455276,0,0,0
1581955958537,2455683,0,0,0
1581955958637,2456183,0,0,0
1581955958737,2456809,0,0,0
1581955958837,2456954,0,0,0
1581955958937,2457559,0,0,0
1581955959026,2457538,0,0,0
1581955959127,2458088,0,0,0
1581955959228,2458892,0,0,0
1581955959327,2458371,0,0,0
1581955959427,2457967,0,0,0
1581955959527,2457396,0,0,0
1581955959627,2456432,0,0,0
1581955959727,2457757,0,0,0
1581955959827,2458712,0,0,0
1581955959927,2458187,0,0,0
1581955960028,2458946,0,2,0
1581955960127,2458415,0,2,0
1581955960228,2459473,0,2,0
1581955960328,2459703,0,2,0
1581955960428,2458995,0,2,0
1581955960528,2459262,0,2,0
1581955960628,2459182,0,2,0
1581955960739,2459300,0,2,0
1581955960839,2459679,0,2,0
1581955960938,2460414,0,2,0
1581955961039,2462746,0,2,0
1581955961138,2462461,0,2,0
1581955961239,2460309,0,2,0
1581955961338,2460829,0,2,0
1581955961438,2459711,0,2,0
1581955961539,2459116,0,2,0
1581955961639,2459451,0,2,0
1581955961739,2458860,0,2,0
1581955961839,2458762,0,2,0
1581955961939,2458404,0,2,0
1581955962039,2458374,0,2,0
1581955962129,2457289,0,2,0
1581955962229,2456961,0,2,0
1581955962330,2456845,0,2,0
1581955962430,2457101,0,2,0
1581955962531,2458681,0,2,0
1581955962630,2459823,0,2,0
1581955962730,2459734,0,2,0
1581955962830,2459647,0,2,0
1581955962930,2459145,0,2,0
1581955963030,2458999,0,2,0
1581955963130,2457670,0,2,0
1581955963230,2457361,0,2,0
1581955963330,2456388,0,2,0
1581955963430,2456511,0,2,0
1581955963530,2456997,0,2,0
1581955963630,2456750,0,2,0
1581955963730,2456509,0,2,0
1581955963840,2456164,0,2,0
1581955963940,2456018,0,2,0
1581955964040,2455855,0,2,0
1581955964140,2455737,0,2,0
1581955964240,2455332,0,2,0
1581955964330,2455120,0,2,0
1581955964430,2455183,0,2,0
1581955964531,2455370,0,2,0
1581955964631,2455390,0,2,0
1581955964731,2454616,0,2,0
1581955964831,2454207,0,2,0
1581955964931,2454379,0,2,0
1581955965031,2453156,0,2,0
1581955965131,2452734,0,2,0
1581955965231,2452691,0,2,0
1581955965331,2452802,0,2,0
1581955965431,2453039,0,2,0
1581955965531,2453483,0,2,0
1581955965631,2453883,0,2,0
1581955965731,2454048,0,2,0
1581955965831,2454002,0,2,0
1581955965931,2454132,0,2,0
1581955966031,2454095,0,2,0
1581955966131,2454109,0,2,0
1581955966232,2454131,0,2,0
1581955966332,2454347,0,2,0
1581955966432,2454441,0,2,0
1581955966532,2454564,0,2,0
1581955966655,2454628,0,2,0
1581955966732,2454601,0,2,0
1581955966832,2454748,0,2,0
1581955966932,2454765,0,2,0
1581955967032,2454854,0,2,0
1581955967132,2454843,0,2,0
1581955967232,2454893,0,2,0
1581955967332,2455008,0,2,0
1581955967433,2454981,0,2,0
1581955967533,2455094,0,2,0
1581955967632,2455040,0,2,0
1581955967733,2455108,0,2,0
1581955967833,2455321,0,2,0
1581955967933,2455223,0,2,0
1581955968043,2455148,0,2,0
1581955968143,2455206,0,2,0
1581955968243,2455125,0,2,0
1581955968343,2455319,0,2,0
1581955968443,2455356,0,2,0
1581955968543,2455229,0,2,0
1581955968643,2455310,0,2,0
1581955968743,2455360,0,2,0
1581955968844,2455341,0,2,0
1581955968944,2455248,0,2,0
1581955969044,2455559,0,2,0
1581955969144,2455352,0,2,0
1581955969244,2455407,0,2,0
1581955969334,2455387,0,2,0
1581955969434,2455431,0,2,0
1581955969534,2455343,0,2,0
1581955969634,2455342,0,2,0
1581955969734,2455413,0,2,0
1581955969834,2455447,0,2,0
1581955969934,2455343,0,2,0
1581955970034,2455260,0,2,0
1581955970134,2454891,0,2,0
1581955970234,2454487,0,2,0
1581955970334,2454615,0,2,0
1581955970434,2454629,0,2,0
1581955970534,2454626,0,2,0
1581955970634,2454725,0,2,0
1581955970735,2454778,0,2,0
1581955970835,2454643,0,2,0
1581955970945,2454885,0,2,0
1581955971045,2455109,0,2,0
1581955971144,2455270,0,2,0
1581955971245,2455276,0,2,0
1581955971345,2455235,0,2,0
1581955971445,2455220,0,2,0
1581955971545,2455336,0,2,0
1581955971645,2455236,0,2,0
1581955971745,2455293,0,2,0
1581955971845,2455104,0,2,0
1581955971945,2455061,0,2,0
1581955972045,2454959,0,2,0
1581955972146,2454779,0,2,0
1581955972246,2454852,0,2,0
1581955972345,2454757,0,2,0
1581955972446,2454570,0,2,0
1581955972546,2454286,0,2,0
1581955972646,2454201,0,2,0
1581955972747,2453953,0,2,0
1581955972847,2453904,0,2,0
1581955972946,2453754,0,2,0
1581955973047,2453549,0,2,0
1581955973146,2453362,0,2,0
1581955973247,2453092,0,2,0
1581955973347,2452892,0,2,0
1581955973447,2452761,0,2,0
1581955973547,2452645,0,2,0
1581955973647,2452491,0,2,0
1581955973747,2452187,0,2,0
1581955973847,2451878,0,2,0
1581955973949,2451567,0,2,0
1581955974047,2451278,0,2,0
1581955974147,2451169,0,2,0
1581955974247,2451021,0,2,0
1581955974337,2450924,0,2,0
1581955974437,2450548,0,2,0
1581955974537,2450201,0,2,0
1581955974637,2450033,0,2,0
1581955974737,2449720,0,2,0
1581955974838,2449611,0,2,0
1581955974938,2449448,0,2,0
1581955975037,2449255,0,2,0
1581955975137,2448971,0,2,0
1581955975238,2448717,0,2,0
1581955975338,2448441,0,2,0
1581955975438,2448359,0,2,0
1581955975538,2448246,0,2,0
1581955975638,2448211,0,2,0
1581955975738,2447970,0,2,0
1581955975848,2447733,0,2,0
1581955975948,2447713,0,2,0
1581955976048,2447416,0,2,0
1581955976148,2447426,0,2,0
1581955976250,2447305,0,2,0
1581955976348,2447193,0,2,0
1581955976448,2447033,0,2,0
1581955976549,2446890,0,2,0
1581955976649,2446794,0,2,0
1581955976749,2446636,0,2,0
1581955976849,2446689,0,2,0
1581955976949,2446730,0,2,0
1581955977049,2446780,0,2,0
1581955977149,2446696,0,2,0
1581955977249,2446430,0,2,0
1581955977349,2446324,0,2,0
1581955977449,2446311,0,2,0
1581955977549,2446362,0,2,0
1581955977649,2446305,0,2,0
1581955977749,2446418,0,2,0
1581955977849,2446420,0,2,0
1581955977940,2446328,0,2,0
1581955978039,2446196,0,2,0
1581955978139,2446322,0,2,0
1581955978239,2446257,0,2,0
1581955978339,2446177,0,2,0
1581955978440,2446312,0,2,0
1581955978540,2446320,0,2,0
1581955978640,2446276,0,2,0
1581955978740,2446247,0,2,0
1581955978840,2446124,0,2,0
1581955978940,2446302,0,2,0
1581955979040,2446393,0,2,0
1581955979140,2446419,0,2,0
1581955979239,2446414,0,2,0
1581955979339,2446279,0,2,0
1581955979439,2446320,0,2,0
1581955979539,2446275,0,2,0
1581955979639,2446413,0,2,0
1581955979739,2446428,0,2,0
1581955979839,2446417,0,2,0
1581955979939,2446448,0,2,0
1581955980039,2446413,0,2,0
1581955980139,2446414,0,2,0
1581955980240,2446389,0,2,0
1581955980340,2446250,0,2,0
1581955980439,2446317,0,2,0
1581955980540,2446462,0,2,0
1581955980640,2446462,0,2,0
1581955980740,2446509,0,2,0
1581955980840,2446407,0,2,0
1581955980950,2446246,0,2,0
1581955981050,2446350,0,2,0
1581955981150,2446324,0,2,0
1581955981251,2446354,0,2,0
1581955981351,2446416,0,2,0
1581955981451,2446602,0,2,0
1581955981552,2446760,0,2,0
1581955981651,2446753,0,2,0
1581955981751,2446765,0,2,0
1581955981851,2446820,0,2,0
1581955981952,2446825,0,2,0
1581955982051,2446695,0,2,0
1581955982152,2446691,0,2,0
1581955982251,2446608,0,2,0
1581955982353,2446529,0,2,0
1581955982452,2446503,0,2,0
1581955982553,2446508,0,2,0
1581955982652,2446513,0,2,0
1581955982753,2446378,0,2,0
1581955982852,2446249,0,2,0
1581955982953,2446328,0,2,0
1581955983053,2446063,0,2,0
1581955983153,2446094,0,2,0
1581955983253,2446015,0,2,0
1581955983354,2445804,0,2,0
1581955983453,2445664,0,2,0
1581955983554,2445648,0,2,0
1581955983653,2445565,0,2,0
1581955983754,2445508,0,2,0
1581955983853,2445481,0,2,0
1581955983954,2445288,0,2,0
1581955984053,2445040,0,2,0
1581955984154,2444982,0,2,0
1581955984253,2444905,0,2,0
1581955984344,2444837,0,2,0
1581955984443,2444766,0,2,0
1581955984544,2444760,0,2,0
1581955984643,2444595,0,2,0
1581955984744,2444501,0,2,0
1581955984846,2444257,0,2,0
1581955984944,2444204,0,2,0
1581955985044,2444052,0,2,0
1581955985145,2444134,0,2,0
1581955985245,2444040,0,2,0
1581955985344,2444129,0,2,0
1581955985445,2444052,0,2,0
1581955985544,2443980,0,2,0
1581955985655,2443738,0,2,0
1581955985754,2443722,0,2,0
1581955985855,2443728,0,2,0
1581955985954,2443685,0,2,0
1581955986055,2443697,0,2,0
1581955986155,2443571,0,2,0
1581955986255,2443373,0,2,0
1581955986355,2443332,0,2,0
1581955986455,2443367,0,2,0
1581955986556,2443456,0,2,0
1581955986655,2443454,0,2,0
1581955986756,2443485,0,2,0
1581955986855,2443316,0,2,0
1581955986956,2443304,0,2,0
1581955987055,2443179,0,2,0
1581955987156,2443296,0,2,0
1581955987256,2443073,0,2,0
1581955987357,2443228,0,2,0
1581955987456,2443288,0,2,0
1581955987556,2443370,0,2,0
1581955987656,2443398,0,2,0
1581955987756,2443124,0,2,0
1581955987856,2443157,0,2,0
1581955987956,2443139,0,2,0
1581955988057,2443180,0,2,0
1581955988156,2443165,0,2,0
1581955988257,2443161,0,2,0
1581955988356,2443142,0,2,0
1581955988457,2443176,0,2,0
1581955988557,2443086,0,2,0
1581955988657,2443124,0,2,0
1581955988757,2443253,0,2,0
1581955988859,2443303,0,2,0
1581955988946,2443223,0,2,0
1581955989047,2443224,0,2,0
1581955989147,2443117,0,2,0
1581955989248,2443025,0,2,0
1581955989348,2443115,0,2,0
1581955989447,2443088,0,2,0
1581955989547,2443180,0,2,0
1581955989647,2443186,0,2,0
1581955989747,2443215,0,2,0
1581955989847,2443140,0,2,0
1581955989947,2443011,0,2,0
1581955990047,2443057,0,2,0
1581955990148,2442861,0,2,0
1581955990248,2443012,0,2,0
1581955990348,2442936,0,2,0
1581955990447,2442726,0,2,0
1581955990561,2442721,0,2,0
1581955990658,2442746,0,2,0
1581955990759,2442493,0,2,0
1581955990859,2442544,0,2,0
1581955990958,2442621,0,2,0
1581955991058,2442557,0,2,0
1581955991159,2442438,0,2,0
1581955991258,2442258,0,2,0
1581955991359,2442181,0,2,0
1581955991458,2442077,0,2,0
1581955991559,2442046,0,2,0
1581955991658,2442038,0,2,0
1581955991759,2442029,0,2,0
1581955991859,2441728,0,2,0
1581955991959,2441651,0,2,0
1581955992059,2441474,0,2,0
1581955992159,2441419,0,2,0
1581955992259,2441354,0,2,0
1581955992359,2441225,0,2,0
1581955992459,2441216,0,2,0
1581955992560,2440969,0,2,0
1581955992660,2440765,0,2,0
1581955992759,2440632,0,2,0
1581955992860,2440585,0,2,0
1581955992959,2440547,0,2,0
1581955993060,2440211,0,2,0
1581955993159,2440173,0,2,0
1581955993260,2440021,0,2,0
1581955993360,2439820,0,2,0
1581955993460,2439850,0,2,0
1581955993560,2439658,0,2,0
1581955993660,2439584,0,2,0
1581955993760,2439421,0,2,0
1581955993860,2439258,0,2,0
1581955993960,2439064,0,2,0
1581955994061,2439048,0,2,0
1581955994160,2438894,0,2,0
1581955994261,2438979,0,2,0
1581955994350,2438906,0,2,0
1581955994451,2438679,0,2,0
1581955994550,2438720,0,2,0
1581955994651,2438481,0,2,0
1581955994750,2438451,0,2,0
1581955994851,2438484,0,2,0
1581955994950,2438322,0,2,0
1581955995051,2438217,0,2,0
1581955995150,2438041,0,2,0
1581955995251,2437916,0,2,0
1581955995351,2437981,0,2,0
1581955995451,2437867,0,2,0
1581955995551,2437850,0,2,0
1581955995651,2437798,0,2,0
1581955995751,2437640,0,2,0
1581955995851,2437496,0,2,0
1581955995951,2437432,0,2,0
1581955996052,2437370,0,2,0
1581955996151,2437331,0,2,0
1581955996252,2437456,0,2,0
1581955996351,2437355,0,2,0
1581955996453,2437212,0,2,0
1581955996553,2436983,0,2,0
1581955996653,2436899,0,2,0
1581955996753,2437044,0,2,0
1581955996853,2437205,0,2,0
1581955996953,2437033,0,2,0
1581955997063,2436979,0,2,0
1581955997152,2436932,0,2,0
1581955997263,2436886,0,2,0
1581955997363,2436814,0,2,0
1581955997463,2437008,0,2,0
1581955997562,2437140,0,2,0
1581955997663,2437104,0,2,0
1581955997762,2436875,0,2,0
1581955997863,2436967,0,2,0
1581955997962,2436947,0,2,0
1581955998063,2436956,0,2,0
1581955998163,2437102,0,2,0
1581955998263,2437320,0,2,0
1581955998363,2437162,0,2,0
1581955998463,2437038,0,2,0
1581955998563,2437100,0,2,0
1581955998664,2437023,0,2,0
1581955998763,2437190,0,2,0
1581955998864,2437249,0,2,0
1581955998963,2437223,0,2,0
1581955999064,2437194,0,2,0
1581955999163,2437334,0,2,0
1581955999264,2437159,0,2,0
1581955999354,2437180,0,2,0
1581955999454,2437306,0,2,0
1581955999554,2437224,0,2,0
1581955999653,2437341,0,2,0
1581955999754,2437332,0,2,0
1581955999854,2437147,0,2,0
1581955999954,2437194,0,2,0
1581956000054,2437471,0,2,0
1581956000154,2437352,0,2,0
1581956000254,2437375,0,2,0
1581956000355,2437654,0,2,0
1581956000454,2437543,0,2,0
1581956000555,2437507,0,2,0
1581956000654,2437390,0,2,0
1581956000755,2437468,0,2,0
1581956000854,2437311,0,2,0
1581956000955,2437501,0,2,0
1581956001055,2437547,0,2,0
1581956001155,2437666,0,2,0
1581956001255,2437532,0,2,0
1581956001355,2437403,0,2,0
1581956001455,2437491,0,2,0
1581956001556,2437548,0,2,0
1581956001655,2437494,0,2,0
1581956001755,2437559,0,2,0
1581956001855,2437459,0,2,0
1581956001956,2437256,0,2,0
1581956002055,2437313,0,2,0
1581956002156,2437437,0,2,0
1581956002255,2437500,0,2,0
1581956002356,2437496,0,2,0
1581956002456,2437605,0,2,0
1581956002556,2437476,0,2,0
1581956002654,2437338,0,2,0
1581956002755,2437308,0,2,0
1581956002855,2437266,0,2,0
1581956002955,2437247,0,2,0
1581956003054,2437223,0,2,0
1581956003155,2437380,0,2,0
1581956003255,2437305,0,2,0
1581956003355,2437179,0,2,0
1581956003455,2437104,0,2,0
1581956003566,2437108,0,2,0
1581956003665,2436971,0,2,0
1581956003766,2437122,0,2,0
1581956003865,2437155,0,2,0
1581956003966,2436990,0,2,0
1581956004065,2436932,0,2,0
1581956004166,2436852,0,2,0
1581956004265,2436830,0,2,0
1581956004356,2436631,0,2,0
1581956004455,2436859,0,2,0
1581956004556,2436921,0,2,0
1581956004655,2436778,0,2,0
1581956004756,2436801,0,2,0
1581956004856,2436698,0,2,0
1581956004957,2436804,0,2,0
1581956005056,2436775,0,2,0
1581956005156,2436782,0,2,0
1581956005258,2436818,0,2,0
1581956005357,2436626,0,2,0
1581956005456,2436720,0,2,0
1581956005557,2436525,0,2,0
1581956005656,2436637,0,2,0
1581956005757,2436625,0,2,0
1581956005856,2436747,0,2,0
1581956005957,2436695,0,2,0
1581956006056,2436434,0,2,0
1581956006167,2436536,0,2,0
1581956006267,2436461,0,2,0
1581956006367,2436378,0,2,0
1581956006468,2436572,0,2,0
1581956006568,2436491,0,2,0
1581956006667,2436471,0,2,0
1581956006768,2436244,0,2,0
1581956006868,2436233,0,2,0
1581956006968,2436285,0,2,0
1581956007067,2436337,0,2,0
1581956007168,2436193,0,2,0
1581956007269,2436295,0,2,0
1581956007368,2436073,0,2,0
1581956007469,2436066,0,2,0
1581956007568,2436037,0,2,0
1581956007668,2436113,0,2,0
1581956007768,2436042,0,2,0
1581956007868,2435976,0,2,0
1581956007959,2435923,0,2,0
1581956008058,2435886,0,2,0
1581956008158,2435876,0,2,0
1581956008258,2435817,0,2,0
1581956008358,2435715,0,2,0
1581956008458,2435827,0,2,0
1581956008559,2435733,0,2,0
1581956008658,2435847,0,2,0
1581956008759,2435664,0,2,0
1581956008859,2435672,0,2,0
1581956008959,2435605,0,2,0
1581956009059,2435614,0,2,0
1581956009159,2435666,0,2,0
1581956009259,2435632,0,2,0
1581956009359,2435469,0,2,0
1581956009459,2435434,0,2,0
1581956009559,2435440,0,2,0
1581956009659,2435309,0,2,0
1581956009759,2435353,0,2,0
1581956009859,2435435,0,2,0
1581956009959,2435590,0,2,0
1581956010059,2435507,0,2,0
1581956010160,2435490,0,2,0
1581956010259,2435426,0,2,0
1581956010360,2435470,0,2,0
1581956010459,2435445,0,2,0
1581956010560,2435476,0,2,0
1581956010659,2435610,0,2,0
1581956010760,2435855,0,2,0
1581956010860,2435653,0,2,0
1581956010971,2435675,0,2,0
1581956011060,2435579,0,2,0
1581956011171,2435688,0,2,0
1581956011270,2435705,0,2,0
1581956011371,2435806,0,2,0
1581956011470,2435776,0,2,0
1581956011571,2435849,0,2,0
1581956011670,2435861,0,2,0
1581956011771,2435841,0,2,0
1581956011870,2435967,0,2,0
1581956011971,2436064,0,2,0
1581956012071,2436012,0,2,0
1581956012171,2436237,0,2,0
1581956012271,2436150,0,2,0
1581956012371,2436145,0,2,0
1581956012471,2436233,0,2,0
1581956012572,2436299,0,2,0
1581956012671,2436274,0,2,0
1581956012772,2436388,0,2,0
1581956012871,2436555,0,2,0
1581956012972,2436508,0,2,0
1581956013071,2436468,0,2,0
1581956013172,2436482,0,2,0
1581956013271,2436480,0,2,0
1581956013372,2436615,0,2,0
1581956013471,2436449,0,2,0
1581956013572,2436698,0,2,0
1581956013672,2436537,0,2,0
1581956013772,2436507,0,2,0
1581956013872,2436563,0,2,0
1581956013972,2436447,0,2,0
1581956014072,2436498,0,2,0
1581956014172,2436472,0,2,0
1581956014272,2436538,0,2,0
1581956014363,2436478,0,2,0
1581956014462,2436338,0,2,0
1581956014563,2436141,0,2,0
1581956014662,2436081,0,2,0
1581956014763,2436095,0,2,0
1581956014863,2436039,0,2,0
1581956014963,2436038,0,2,0
1581956015062,2436057,0,2,0
1581956015163,2435730,0,2,0
1581956015263,2435456,0,2,0
1581956015363,2435321,0,2,0
1581956015463,2435282,0,2,0
1581956015574,2435218,0,2,0
1581956015673,2435052,0,2,0
1581956015774,2434961,0,2,0
1581956015873,2434729,0,2,0
1581956015974,2434497,0,2,0
1581956016073,2434357,0,2,0
1581956016174,2434253,0,2,0
1581956016273,2434245,0,2,0
1581956016374,2434303,0,2,0
1581956016473,2434089,0,2,0
1581956016574,2433931,0,2,0
1581956016674,2433721,0,2,0
1581956016774,2433565,0,2,0
1581956016874,2433492,0,2,0
1581956016975,2433604,0,2,0
1581956017074,2433599,0,2,0
1581956017174,2433640,0,2,0
1581956017274,2433417,0,2,0
1581956017375,2433348,0,2,0
1581956017474,2433232,0,2,0
1581956017575,2433132,0,2,0
1581956017674,2433094,0,2,0
1581956017775,2433275,0,2,0
1581956017874,2433328,0,2,0
1581956017975,2433268,0,2,0
1581956018075,2433144,0,2,0
1581956018175,2433069,0,2,0
1581956018275,2432942,0,2,0
1581956018375,2432990,0,2,0
1581956018475,2433157,0,2,0
1581956018576,2433134,0,2,0
1581956018675,2433036,0,2,0
1581956018776,2432789,0,2,0
1581956018875,2432967,0,2,0
1581956018966,2432994,0,2,0
1581956019065,2432955,0,2,0
1581956019166,2433094,0,2,0
1581956019265,2433133,0,2,0
1581956019366,2433050,0,2,0
1581956019465,2432882,0,2,0
1581956019566,2432800,0,2,0
1581956019665,2432860,0,2,0
1581956019766,2432904,0,2,0
1581956019865,2433008,0,2,0
1581956019969,2433268,0,2,0
1581956020066,2433223,0,2,0
1581956020166,2432977,0,2,0
1581956020266,2432920,0,2,0
1581956020367,2433002,0,2,0
1581956020466,2432904,0,2,0
1581956020567,2433149,0,2,0
1581956020666,2433059,0,2,0
1581956020767,2432894,0,2,0
1581956020879,2432861,0,2,0
1581956020967,2432968,0,2,0
1581956021077,2432903,0,2,0
1581956021177,2432957,0,2,0
1581956021277,2433123,0,2,0
1581956021378,2433120,0,2,0
1581956021478,2433003,0,2,0
1581956021578,2432956,0,2,0
1581956021678,2432997,0,2,0
1581956021778,2433018,0,2,0
1581956021878,2433049,0,2,0
1581956021978,2433222,0,2,0
1581956022078,2433130,0,2,0
1581956022178,2433242,0,2,0
1581956022279,2433042,0,2,0
1581956022379,2433074,0,2,0
1581956022480,2433048,0,2,0
1581956022579,2433235,0,2,0
1581956022680,2433286,0,2,0
