timestamp,ppg,label,stage,hand
1582561778016,2637720,1,4,d
1582561778092,2638636,1,4,d
1582561778238,2640245,1,4,d
1582561778291,2641573,1,4,d
1582561778391,2643091,1,4,d
1582561778490,2644935,1,4,d
1582561778590,2646325,1,4,d
1582561778691,2647143,1,4,d
1582561778833,2647133,1,4,d
1582561778894,2647255,1,4,d
1582561778993,2647263,1,4,d
1582561779093,2646955,1,4,d
1582561779194,2645954,1,4,d
1582561779294,2645065,1,4,d
1582561779394,2644471,1,4,d
1582561779494,2642363,1,4,d
1582561779594,2640451,1,4,d
1582561779694,2639347,1,4,d
1582561779794,2638387,1,4,d
1582561779894,2637137,1,4,d
1582561779994,2636458,1,4,d
1582561780094,2635328,1,4,d
1582561780195,2632773,1,4,d
1582561780295,2630725,1,4,d
1582561780395,2629104,1,4,d
1582561780495,2627759,1,4,d
1582561780595,2626881,1,4,d
1582561780695,2626583,1,4,d
1582561780785,2626204,1,4,d
1582561780885,2626204,1,4,d
1582561780985,2625049,1,4,d
1582561781084,2623329,1,4,d
1582561781185,2622338,1,4,d
1582561781285,2621505,1,4,d
1582561781385,2621306,1,4,d
1582561781485,2621179,1,4,d
1582561781585,2621579,1,4,d
1582561781685,2621819,1,4,d
1582561781785,2622323,1,4,d
1582561781885,2621745,1,4,d
1582561781985,2620762,1,4,d
1582561782085,2620257,1,4,d
1582561782185,2619965,1,4,d
1582561782284,2619946,1,4,d
1582561782394,2620161,1,4,d
1582561782484,2620852,1,4,d
1582561782584,2621476,1,4,d
1582561782684,2622164,1,4,d
1582561782784,2622649,1,4,d
1582561782884,2621352,1,4,d
1582561782985,2620751,1,4,d
1582561783085,2620376,1,4,d
1582561783185,2620336,1,4,d
1582561783295,2620392,1,4,d
1582561783395,2620906,1,4,d
1582561783495,2621416,1,4,d
1582561783595,2622009,1,4,d
1582561783696,2622710,1,4,d
1582561783795,2622477,1,4,d
1582561783895,2621459,1,4,d
1582561783997,2621084,1,4,d
1582561784096,2620858,1,4,d
1582561784196,2620718,1,4,d
1582561784296,2621055,1,4,d
1582561784396,2621411,1,4,d
1582561784496,2621974,1,4,d
1582561784596,2622676,1,4,d
1582561784696,2623330,1,4,d
1582561784796,2622498,1,4,d
1582561784896,2621976,1,4,d
1582561784997,2621951,1,4,d
1582561785096,2621964,1,4,d
1582561785196,2622146,1,4,d
1582561785296,2622668,1,4,d
1582561785396,2623247,1,4,d
1582561785497,2623840,1,4,d
1582561785596,2623522,1,4,d
1582561785697,2622897,1,4,d
1582561785787,2622751,1,4,d
1582561785887,2622829,1,4,d
1582561785986,2622986,1,4,d
1582561786087,2623582,1,4,d
1582561786187,2624070,1,4,d
1582561786287,2624866,1,4,d
1582561786387,2624247,1,4,d
1582561786487,2623569,1,4,d
1582561786587,2623216,1,4,d
1582561786687,2623275,1,4,d
1582561786787,2623329,1,4,d
1582561786887,2623805,1,4,d
1582561786987,2624205,1,4,d
1582561787087,2624923,1,4,d
1582561787187,2625675,1,4,d
1582561787287,2625096,1,4,d
1582561787387,2624364,1,4,d
1582561787488,2623847,1,4,d
1582561787588,2623855,1,4,d
1582561787688,2623896,1,4,d
1582561787788,2624025,1,4,d
1582561787888,2624640,1,4,d
1582561787988,2625032,1,4,d
1582561788088,2625715,1,4,d
1582561788188,2626175,1,4,d
1582561788288,2625135,1,4,d
1582561788388,2624320,1,4,d
1582561788489,2624068,1,4,d
1582561788588,2623745,1,4,d
1582561788688,2624043,1,4,d
1582561788788,2624155,1,4,d
1582561788889,2624577,1,4,d
1582561788989,2625124,1,4,d
1582561789089,2625752,1,4,d
1582561789189,2625272,1,4,d
1582561789289,2624450,1,4,d
1582561789389,2624106,1,4,d
1582561789489,2623765,1,4,d
1582561789589,2623733,1,4,d
1582561789699,2623885,1,4,d
1582561789799,2624361,1,4,d
1582561789899,2624756,1,4,d
1582561790001,2625515,1,4,d
1582561790100,2625539,1,4,d
1582561790200,2624465,1,4,d
1582561790300,2623658,1,4,d
1582561790400,2623350,1,4,d
1582561790500,2623054,1,4,d
1582561790600,2623092,1,4,d
1582561790700,2623272,1,4,d
1582561790790,2623747,1,4,d
1582561790890,2624226,1,4,d
1582561790990,2624966,1,4,d
1582561791090,2625432,1,4,d
1582561791190,2624215,1,4,d
1582561791290,2623523,1,4,d
1582561791390,2623221,1,4,d
1582561791490,2623182,1,4,d
1582561791590,2623172,1,4,d
1582561791691,2623570,1,4,d
1582561791791,2624007,1,4,d
1582561791891,2624610,1,4,d
1582561791990,2625319,1,4,d
1582561792091,2625911,1,4,d
1582561792191,2625158,1,4,d
1582561792291,2624831,1,4,d
1582561792391,2624780,1,4,d
1582561792491,2624885,1,4,d
1582561792591,2625085,1,4,d
1582561792691,2625644,1,4,d
1582561792801,2626232,1,4,d
1582561792901,2627072,1,4,d
1582561793001,2627855,1,4,d
1582561793101,2627655,1,4,d
1582561793201,2627212,1,4,d
1582561793302,2627188,1,4,d
1582561793402,2627232,1,4,d
1582561793502,2627505,1,4,d
1582561793602,2627918,1,4,d
1582561793702,2628591,1,4,d
1582561793802,2629302,1,4,d
1582561793902,2630096,1,4,d
1582561794002,2630614,1,4,d
1582561794102,2629876,1,4,d
1582561794202,2629419,1,4,d
1582561794302,2629107,1,4,d
1582561794402,2629105,1,4,d
1582561794503,2629294,1,4,d
1582561794602,2629546,1,4,d
1582561794702,2629914,1,4,d
1582561794803,2630439,1,4,d
1582561794903,2631066,1,4,d
1582561795003,2631164,1,4,d
1582561795103,2630079,1,4,d
1582561795203,2629553,1,4,d
1582561795303,2629105,1,4,d
1582561795403,2628741,1,4,d
1582561795503,2628752,1,4,d
1582561795603,2628802,1,4,d
1582561795704,2629154,1,4,d
1582561795793,2629488,1,4,d
1582561795893,2629842,1,4,d
1582561795993,2629597,1,4,d
1582561796094,2628473,1,4,d
1582561796194,2627878,1,4,d
1582561796294,2627374,1,4,d
1582561796394,2626945,1,4,d
1582561796494,2626870,1,4,d
1582561796594,2626940,1,4,d
1582561796694,2627115,1,4,d
1582561796794,2627563,1,4,d
1582561796894,2627166,1,4,d
1582561796994,2625861,1,4,d
1582561797094,2625092,1,4,d
1582561797194,2624522,1,4,d
1582561797294,2624217,1,4,d
1582561797394,2624192,1,4,d
1582561797494,2624064,1,4,d
1582561797594,2624466,1,4,d
1582561797697,2624811,1,4,d
1582561797795,2624547,1,4,d
1582561797895,2623010,1,4,d
1582561797995,2622120,1,4,d
1582561798095,2621673,1,4,d
1582561798195,2621155,1,4,d
1582561798295,2621151,1,4,d
1582561798395,2621276,1,4,d
1582561798497,2621672,1,4,d
1582561798595,2622006,1,4,d
1582561798695,2622797,1,4,d
1582561798795,2622421,1,4,d
1582561798895,2621189,1,4,d
1582561798996,2620318,1,4,d
1582561799095,2619765,1,4,d
1582561799195,2619490,1,4,d
1582561799295,2619458,1,4,d
1582561799395,2619669,1,4,d
1582561799496,2620177,1,4,d
1582561799596,2620858,1,4,d
1582561799696,2621690,1,4,d
1582561799796,2621112,1,4,d
1582561799896,2620426,1,4,d
1582561799996,2620230,1,4,d
1582561800096,2620020,1,4,d
1582561800196,2620213,1,4,d
1582561800296,2620707,1,4,d
1582561800396,2621272,1,4,d
1582561800496,2621968,1,4,d
1582561800596,2622748,1,4,d
1582561800696,2622512,1,4,d
1582561800796,2621948,1,4,d
1582561800896,2621864,1,4,d
1582561800997,2621863,1,4,d
1582561801097,2622206,1,4,d
1582561801197,2622465,1,4,d
1582561801297,2623273,1,4,d
1582561801397,2623697,1,4,d
1582561801497,2623781,1,4,d
1582561801597,2623031,1,4,d
1582561801697,2622927,1,4,d
1582561801797,2622903,1,4,d
1582561801897,2623100,1,4,d
1582561801997,2623539,1,4,d
1582561802098,2624003,1,4,d
1582561802198,2624800,1,4,d
1582561802297,2624876,1,4,d
1582561802408,2624177,1,4,d
1582561802508,2623769,1,4,d
1582561802608,2623831,1,4,d
1582561802709,2623946,1,4,d
1582561802809,2624257,1,4,d
1582561802909,2625145,1,4,d
1582561803009,2625284,1,4,d
1582561803109,2624502,1,4,d
1582561803209,2624268,1,4,d
1582561803309,2624130,1,4,d
1582561803409,2624259,1,4,d
1582561803509,2624732,1,4,d
1582561803609,2625323,1,4,d
1582561803709,2625988,1,4,d
1582561803809,2626510,1,4,d
1582561803908,2625794,1,4,d
1582561804009,2625484,1,4,d
1582561804109,2625399,1,4,d
1582561804209,2625575,1,4,d
1582561804309,2625898,1,4,d
1582561804409,2626436,1,4,d
1582561804509,2627138,1,4,d
1582561804609,2627870,1,4,d
1582561804709,2628651,1,4,d
1582561804809,2628254,1,4,d
1582561804909,2627962,1,4,d
1582561805009,2628083,0,4,0
1582561805110,2628200,0,4,0
1582561805200,2628510,0,4,0
1582561805299,2628984,0,4,0
1582561805399,2629536,0,4,0
1582561805500,2630284,0,4,0
1582561805600,2629946,0,4,0
1582561805700,2629407,0,4,0
1582561805800,2629060,0,4,0
1582561805900,2628997,0,4,0
1582561806000,2628916,0,4,0
1582561806100,2629118,0,4,0
1582561806200,2629407,0,4,0
1582561806300,2629817,0,4,0
1582561806400,2630249,0,4,0
1582561806500,2628831,0,4,0
1582561806600,2627712,0,4,0
1582561806700,2626938,0,4,0
1582561806800,2626247,0,4,0
1582561806900,2626070,0,4,0
1582561807001,2626114,0,4,0
1582561807101,2626323,0,4,0
1582561807202,2626621,0,4,0
1582561807301,2627176,0,4,0
1582561807401,2626271,0,4,0
1582561807501,2624523,0,4,0
1582561807601,2623551,0,4,0
1582561807701,2622760,0,4,0
1582561807801,2622293,0,4,0
1582561807901,2622440,0,4,0
1582561808001,2622734,0,4,0
1582561808101,2623224,0,4,0
1582561808202,2623945,0,4,0
1582561808301,2624335,0,4,0
1582561808401,2622970,0,4,0
1582561808502,2621999,0,4,0
1582561808602,2621632,0,4,0
1582561808702,2621299,0,4,0
1582561808802,2621514,0,4,0
1582561808912,2621997,0,4,0
1582561809012,2622529,0,4,0
1582561809112,2623446,0,4,0
1582561809212,2624069,0,4,0
1582561809312,2623391,0,4,0
1582561809413,2622868,0,4,0
1582561809513,2622916,0,4,0
1582561809613,2623274,0,4,0
1582561809713,2623615,0,4,0
1582561809813,2624255,0,4,0
1582561809913,2625069,0,4,0
1582561810013,2625942,2,4,b
1582561810113,2625904,2,4,b
1582561810213,2625111,2,4,b
1582561810313,2625018,2,4,b
1582561810413,2624949,2,4,b
1582561810513,2625283,2,4,b
1582561810613,2625660,2,4,b
1582561810703,2626449,2,4,b
1582561810803,2627104,2,4,b
1582561810903,2627943,2,4,b
1582561811003,2627925,2,4,b
1582561811103,2627170,2,4,b
1582561811203,2626823,2,4,b
1582561811303,2626838,2,4,b
1582561811404,2626844,2,4,b
1582561811504,2627224,2,4,b
1582561811604,2627798,2,4,b
1582561811716,2628292,2,4,b
1582561811804,2629270,2,4,b
1582561811904,2629909,2,4,b
1582561812004,2628780,2,4,b
1582561812104,2628375,2,4,b
1582561812204,2628314,2,4,b
1582561812304,2628321,2,4,b
1582561812404,2628619,2,4,b
1582561812504,2628988,2,4,b
1582561812615,2629692,2,4,b
1582561812715,2630369,2,4,b
1582561812815,2631173,2,4,b
1582561812915,2630929,2,4,b
1582561813015,2630307,2,4,b
1582561813115,2630021,2,4,b
1582561813215,2630140,2,4,b
1582561813315,2630272,2,4,b
1582561813415,2630681,2,4,b
1582561813515,2631186,2,4,b
1582561813615,2631652,2,4,b
1582561813716,2632030,2,4,b
1582561813806,2631446,2,4,b
1582561813905,2630793,2,4,b
1582561814006,2630550,2,4,b
1582561814106,2630387,2,4,b
1582561814206,2630524,2,4,b
1582561814305,2630893,2,4,b
1582561814406,2631376,2,4,b
1582561814506,2631809,2,4,b
1582561814606,2632531,2,4,b
1582561814707,2632369,2,4,b
1582561814806,2631170,2,4,b
1582561814916,2630429,2,4,b
1582561815018,2630078,2,4,b
1582561815117,2629734,2,4,b
1582561815216,2629622,2,4,b
1582561815316,2629930,2,4,b
1582561815417,2630057,2,4,b
1582561815516,2630717,2,4,b
1582561815616,2631260,2,4,b
1582561815707,2630574,2,4,b
1582561815807,2629263,2,4,b
1582561815907,2628563,2,4,b
1582561816007,2628210,2,4,b
1582561816107,2627861,2,4,b
1582561816207,2627912,2,4,b
1582561816307,2628191,2,4,b
1582561816407,2628580,2,4,b
1582561816507,2629134,2,4,b
1582561816607,2629707,2,4,b
1582561816707,2628494,2,4,b
1582561816807,2627714,2,4,b
1582561816907,2627354,2,4,b
1582561817007,2627037,2,4,b
1582561817107,2627009,2,4,b
1582561817207,2627228,2,4,b
1582561817307,2627716,2,4,b
1582561817408,2628245,2,4,b
1582561817508,2628379,2,4,b
1582561817608,2627340,2,4,b
1582561817708,2626806,2,4,b
1582561817808,2626586,2,4,b
1582561817908,2626408,2,4,b
1582561818018,2626686,2,4,b
1582561818118,2627240,2,4,b
1582561818218,2627875,2,4,b
1582561818318,2628545,2,4,b
1582561818418,2629244,2,4,b
1582561818518,2628311,2,4,b
1582561818618,2627737,2,4,b
1582561818719,2627548,2,4,b
1582561818819,2627446,2,4,b
1582561818919,2627696,2,4,b
1582561819019,2627997,2,4,b
1582561819119,2628639,2,4,b
1582561819219,2629415,2,4,b
1582561819319,2629942,2,4,b
1582561819419,2630457,2,4,b
1582561819519,2629534,2,4,b
1582561819619,2629191,2,4,b
1582561819719,2629060,2,4,b
1582561819809,2629038,2,4,b
1582561819909,2629286,2,4,b
1582561820009,2629748,2,4,b
1582561820109,2630162,2,4,b
1582561820210,2630851,2,4,b
1582561820310,2631416,2,4,b
1582561820410,2630685,2,4,b
1582561820510,2630307,2,4,b
1582561820610,2630149,2,4,b
1582561820710,2630098,2,4,b
1582561820810,2630268,2,4,b
1582561820910,2630595,2,4,b
1582561821010,2631055,2,4,b
1582561821110,2631690,2,4,b
1582561821210,2632270,2,4,b
1582561821310,2631688,2,4,b
1582561821410,2630780,2,4,b
1582561821510,2630286,2,4,b
1582561821610,2629810,2,4,b
1582561821711,2629663,2,4,b
1582561821811,2629845,2,4,b
1582561821911,2630185,2,4,b
1582561822011,2630762,2,4,b
1582561822111,2631182,2,4,b
1582561822211,2630995,2,4,b
1582561822321,2629749,2,4,b
1582561822421,2628895,2,4,b
1582561822521,2628679,2,4,b
1582561822621,2628244,2,4,b
1582561822722,2628399,2,4,b
1582561822821,2628575,2,4,b
1582561822921,2628980,2,4,b
1582561823021,2629475,2,4,b
1582561823122,2629948,2,4,b
1582561823222,2629186,2,4,b
1582561823322,2628359,2,4,b
1582561823422,2628078,2,4,b
1582561823522,2627745,2,4,b
1582561823622,2627801,2,4,b
1582561823722,2628068,2,4,b
1582561823822,2628460,2,4,b
1582561823922,2629116,2,4,b
1582561824022,2629712,2,4,b
1582561824122,2629206,2,4,b
1582561824222,2628558,2,4,b
1582561824322,2628517,2,4,b
1582561824423,2628472,2,4,b
1582561824523,2628646,2,4,b
1582561824623,2629113,2,4,b
1582561824723,2629624,2,4,b
1582561824823,2630251,2,4,b
1582561824923,2631059,2,4,b
1582561825023,2631166,2,4,b
1582561825123,2630372,2,4,b
1582561825223,2629827,2,4,b
1582561825323,2629614,2,4,b
1582561825423,2629710,2,4,b
1582561825523,2629992,2,4,b
1582561825623,2630509,2,4,b
1582561825714,2630944,2,4,b
1582561825814,2631704,2,4,b
1582561825913,2632483,2,4,b
1582561826013,2632489,2,4,b
1582561826114,2631628,2,4,b
1582561826214,2631227,2,4,b
1582561826314,2631123,2,4,b
1582561826424,2631081,2,4,b
1582561826524,2631326,2,4,b
1582561826614,2632004,2,4,b
1582561826724,2632460,2,4,b
1582561826824,2633133,2,4,b
1582561826924,2633845,2,4,b
1582561827024,2633565,2,4,b
1582561827124,2632835,2,4,b
1582561827224,2632944,2,4,b
1582561827325,2632880,2,4,b
1582561827425,2633005,2,4,b
1582561827524,2633324,2,4,b
1582561827625,2633940,2,4,b
1582561827727,2634484,2,4,b
1582561827825,2635221,2,4,b
1582561827925,2635469,2,4,b
1582561828025,2634563,2,4,b
1582561828125,2634128,2,4,b
1582561828225,2634024,2,4,b
1582561828325,2634034,2,4,b
1582561828425,2634146,2,4,b
1582561828525,2634395,2,4,b
1582561828625,2634946,2,4,b
1582561828725,2635557,2,4,b
1582561828825,2636159,2,4,b
1582561828926,2636006,2,4,b
1582561829026,2635116,2,4,b
1582561829126,2634385,2,4,b
1582561829226,2634050,2,4,b
1582561829326,2633560,2,4,b
1582561829427,2633530,2,4,b
1582561829526,2633711,2,4,b
1582561829626,2633944,2,4,b
1582561829726,2634200,2,4,b
1582561829826,2634723,2,4,b
1582561829926,2634253,2,4,b
1582561830026,2632756,2,4,b
1582561830116,2631808,2,4,b
1582561830216,2631187,2,4,b
1582561830316,2630364,2,4,b
1582561830417,2630181,2,4,b
1582561830516,2630070,2,4,b
1582561830616,2630048,2,4,b
1582561830717,2630133,2,4,b
1582561830816,2629239,2,4,b
1582561830917,2627169,2,4,b
1582561831017,2625799,2,4,b
1582561831117,2624832,2,4,b
1582561831217,2623972,2,4,b
1582561831317,2623543,2,4,b
1582561831417,2623353,2,4,b
1582561831517,2623419,2,4,b
1582561831617,2623615,2,4,b
1582561831717,2622667,2,4,b
1582561831817,2620140,2,4,b
1582561831917,2618377,2,4,b
1582561832017,2617086,2,4,b
1582561832118,2616146,2,4,b
1582561832228,2615720,2,4,b
1582561832328,2615617,2,4,b
1582561832428,2615638,2,4,b
1582561832528,2616001,2,4,b
1582561832618,2616269,2,4,b
1582561832728,2614922,2,4,b
1582561832828,2612874,2,4,b
1582561832928,2611892,2,4,b
1582561833028,2611087,2,4,b
1582561833128,2610664,2,4,b
1582561833228,2610851,2,4,b
1582561833328,2611222,2,4,b
1582561833429,2611829,2,4,b
1582561833528,2612535,2,4,b
1582561833629,2612753,2,4,b
1582561833729,2611113,2,4,b
1582561833829,2610779,2,4,b
1582561833929,2610550,2,4,b
1582561834029,2610361,2,4,b
1582561834129,2610907,2,4,b
1582561834229,2611587,2,4,b
1582561834329,2612407,2,4,b
1582561834429,2613357,2,4,b
1582561834530,2612760,2,4,b
1582561834629,2612083,2,4,b
1582561834729,2611875,2,4,b
1582561834829,2612146,2,4,b
1582561834929,2612179,2,4,b
1582561835019,2612987,2,4,b
1582561835119,2613733,2,4,b
1582561835220,2614764,2,4,b
1582561835319,2615727,2,4,b
1582561835420,2616549,2,4,b
1582561835520,2615489,2,4,b
1582561835620,2615164,2,4,b
1582561835720,2615084,2,4,b
1582561835820,2615044,2,4,b
1582561835920,2615457,2,4,b
1582561836020,2616231,2,4,b
1582561836120,2617003,2,4,b
1582561836220,2617887,2,4,b
1582561836320,2618839,2,4,b
1582561836420,2619887,2,4,b
1582561836520,2618984,2,4,b
1582561836620,2618469,2,4,b
1582561836720,2618207,2,4,b
1582561836820,2618238,2,4,b
1582561836921,2618346,2,4,b
1582561837021,2618915,2,4,b
1582561837121,2619508,2,4,b
1582561837221,2620166,2,4,b
1582561837321,2620962,2,4,b
1582561837421,2621822,2,4,b
1582561837521,2620609,2,4,b
1582561837621,2620102,2,4,b
1582561837721,2619885,2,4,b
1582561837821,2619705,2,4,b
1582561837921,2619852,2,4,b
1582561838021,2620200,2,4,b
1582561838122,2620730,2,4,b
1582561838222,2621258,2,4,b
1582561838322,2621757,2,4,b
1582561838422,2620266,2,4,b
1582561838522,2619230,2,4,b
1582561838622,2618437,2,4,b
1582561838722,2618034,2,4,b
1582561838822,2617717,2,4,b
1582561838932,2617988,2,4,b
1582561839033,2618381,2,4,b
1582561839132,2618689,2,4,b
1582561839232,2619177,2,4,b
1582561839334,2617443,2,4,b
1582561839434,2615619,2,4,b
1582561839534,2614870,2,4,b
1582561839634,2614166,2,4,b
1582561839734,2614046,2,4,b
1582561839834,2614377,2,4,b
1582561839934,2614591,2,4,b
1582561840034,2615455,2,4,b
1582561840123,2614215,2,4,b
1582561840234,2612134,2,4,b
1582561840336,2609832,2,4,b
1582561840434,2608595,2,4,b
1582561840534,2608877,2,4,b
1582561840634,2610778,2,4,b
1582561840725,2610928,2,4,b
1582561840824,2610617,2,4,b
1582561840924,2608241,2,4,b
1582561841024,2607236,2,4,b
1582561841124,2606999,2,4,b
1582561841224,2606039,2,4,b
1582561841324,2605070,2,4,b
1582561841425,2604700,2,4,b
1582561841525,2604875,2,4,b
1582561841625,2604045,2,4,b
1582561841726,2601600,2,4,b
1582561841826,2600651,2,4,b
1582561841926,2599514,2,4,b
1582561842025,2599858,2,4,b
1582561842125,2599670,2,4,b
1582561842225,2600733,2,4,b
1582561842325,2602900,2,4,b
1582561842426,2603600,2,4,b
1582561842526,2601689,2,4,b
1582561842626,2600348,2,4,b
1582561842726,2600228,2,4,b
1582561842826,2601086,2,4,b
1582561842936,2601662,2,4,b
1582561843036,2602941,2,4,b
1582561843136,2604467,2,4,b
1582561843236,2603816,2,4,b
1582561843336,2603540,2,4,b
1582561843437,2604151,2,4,b
1582561843537,2604213,2,4,b
1582561843637,2604472,2,4,b
1582561843737,2604410,2,4,b
1582561843837,2604198,2,4,b
1582561843937,2603003,2,4,b
1582561844040,2602950,2,4,b
1582561844137,2603128,2,4,b
1582561844237,2603956,2,4,b
1582561844336,2605757,2,4,b
1582561844437,2605614,2,4,b
1582561844538,2604484,2,4,b
1582561844637,2605820,2,4,b
1582561844738,2608098,2,4,b
1582561844837,2609215,2,4,b
1582561844938,2609958,2,4,b
1582561845039,2610521,2,4,b
1582561845137,2611309,2,4,b
1582561845238,2612094,2,4,b
1582561845337,2613058,2,4,b
1582561845438,2614979,2,4,b
1582561845538,2618124,2,4,b
1582561845638,2622704,2,4,b
1582561845728,2627318,2,4,b
1582561845828,2631118,2,4,b
1582561845928,2633830,2,4,b
1582561846028,2635360,2,4,b
1582561846128,2636347,2,4,b
1582561846228,2636454,2,4,b
1582561846328,2636421,2,4,b
1582561846428,2636530,2,4,b
1582561846528,2636751,2,4,b
1582561846628,2636978,2,4,b
1582561846728,2636882,2,4,b
1582561846829,2637053,2,4,b
1582561846928,2637394,2,4,b
1582561847029,2637311,2,4,b
1582561847129,2638306,2,4,b
1582561847229,2639215,2,4,b
1582561847328,2639644,2,4,b
1582561847429,2639774,2,4,b
1582561847529,2639292,2,4,b
1582561847629,2639017,2,4,b
1582561847729,2638939,2,4,b
1582561847829,2638412,2,4,b
1582561847930,2636189,2,4,b
1582561848030,2633959,2,4,b
1582561848129,2632593,2,4,b
1582561848229,2631033,2,4,b
1582561848329,2629681,2,4,b
1582561848430,2628466,2,4,b
1582561848540,2627376,2,4,b
1582561848640,2626336,2,4,b
1582561848740,2623263,2,4,b
1582561848840,2620747,2,4,b
1582561848940,2619001,2,4,b
1582561849041,2617171,0,4,0
1582561849141,2615739,0,4,0
1582561849241,2614693,0,4,0
1582561849340,2614257,0,4,0
1582561849441,2613111,0,4,0
1582561849541,2610015,0,4,0
1582561849641,2607210,0,4,0
1582561849741,2604707,0,4,0
1582561849841,2601917,0,4,0
1582561849941,2599688,0,4,0
1582561850042,2598052,0,4,0
1582561850142,2596289,0,4,0
1582561850241,2594838,0,4,0
1582561850340,2591749,0,4,0
1582561850441,2589369,0,4,0
1582561850541,2588247,0,4,0
1582561850641,2587879,0,4,0
1582561850732,2590527,0,4,0
1582561850831,2592821,0,4,0
1582561850931,2594635,0,4,0
1582561851031,2594992,0,4,0
1582561851131,2594417,0,4,0
1582561851232,2594262,0,4,0
1582561851331,2595668,0,4,0
1582561851432,2596548,0,4,0
1582561851532,2597237,0,4,0
1582561851632,2600252,0,4,0
1582561851732,2603235,0,4,0
1582561851832,2606947,0,4,0
1582561851932,2612307,0,4,0
1582561852032,2614793,0,4,0
1582561852132,2615959,0,4,0
1582561852233,2617289,0,4,0
1582561852332,2618336,0,4,0
1582561852432,2619162,0,4,0
1582561852533,2620250,0,4,0
1582561852632,2620967,0,4,0
1582561852733,2620542,0,4,0
1582561852833,2620481,0,4,0
1582561852933,2619827,0,4,0
1582561853033,2619789,0,4,0
1582561853135,2620454,0,4,0
1582561853233,2620322,0,4,0
1582561853332,2620629,0,4,0
1582561853443,2620610,0,4,0
1582561853544,2619613,0,4,0
1582561853643,2618819,0,4,0
1582561853744,2618291,0,4,0
1582561853833,2617802,0,4,0
1582561853944,2617746,0,4,0
1582561854044,2617570,0,4,0
1582561854144,2617824,0,4,0
1582561854244,2617915,0,4,0
1582561854333,2617520,0,4,0
1582561854444,2617264,0,4,0
1582561854544,2616476,0,4,0
1582561854644,2615725,0,4,0
1582561854744,2614772,0,4,0
1582561854845,2614204,0,4,0
1582561854944,2613740,0,4,0
1582561855044,2612220,0,4,0
1582561855144,2611053,0,4,0
1582561855245,2611829,0,4,0
1582561855344,2613419,0,4,0
1582561855445,2613536,0,4,0
1582561855545,2612870,0,4,0
1582561855645,2611950,0,4,0
1582561855737,2610076,0,4,0
1582561855835,2608589,0,4,0
1582561855935,2608103,0,4,0
1582561856046,2607733,0,4,0
1582561856145,2607818,0,4,0
1582561856245,2608046,0,4,0
1582561856345,2608591,0,4,0
1582561856445,2609526,0,4,0
1582561856545,2610630,0,4,0
1582561856645,2611277,0,4,0
1582561856746,2612413,0,4,0
1582561856845,2613272,0,4,0
1582561856946,2614194,0,4,0
1582561857046,2614822,0,4,0
1582561857146,2615338,0,4,0
1582561857246,2615442,0,4,0
1582561857345,2614965,0,4,0
1582561857446,2614906,0,4,0
1582561857546,2614993,0,4,0
1582561857646,2615195,0,4,0
1582561857746,2615615,0,4,0
1582561857846,2616352,0,4,0
1582561857946,2616856,0,4,0
1582561858046,2618116,0,4,0
1582561858146,2620137,0,4,0
1582561858247,2621699,0,4,0
1582561858346,2623587,0,4,0
1582561858447,2625157,0,4,0
1582561858547,2626261,0,4,0
1582561858647,2626967,0,4,0
1582561858747,2627830,0,4,0
1582561858847,2629118,0,4,0
1582561858947,2630624,0,4,0
1582561859047,2632040,0,4,0
1582561859147,2632637,0,4,0
1582561859247,2633353,0,4,0
1582561859346,2634127,0,4,0
1582561859447,2634604,0,4,0
1582561859547,2635079,0,4,0
1582561859647,2635291,0,4,0
1582561859748,2635934,0,4,0
1582561859848,2637602,0,4,0
1582561859948,2640631,0,4,0
1582561860048,2642068,0,4,0
1582561860148,2643290,0,4,0
1582561860248,2644007,0,4,0
1582561860347,2644294,0,4,0
1582561860448,2644624,0,4,0
1582561860548,2644956,0,4,0
1582561860648,2645125,0,4,0
1582561860738,2645387,0,4,0
1582561860838,2644912,0,4,0
1582561860938,2644694,0,4,0
1582561861038,2644511,0,4,0
1582561861138,2643934,0,4,0
1582561861238,2643598,0,4,0
1582561861338,2643424,0,4,0
1582561861438,2643474,0,4,0
1582561861539,2643299,0,4,0
1582561861638,2643888,0,4,0
1582561861739,2645112,0,4,0
1582561861839,2645439,0,4,0
1582561861939,2645557,0,4,0
1582561862039,2646327,0,4,0
1582561862139,2647394,0,4,0
1582561862249,2648000,0,4,0
1582561862338,2647752,0,4,0
1582561862449,2645955,0,4,0
1582561862549,2644663,0,4,0
1582561862649,2643929,0,4,0
1582561862750,2643442,0,4,0
1582561862849,2643594,0,4,0
1582561862950,2643614,0,4,0
1582561863050,2644033,0,4,0
1582561863150,2644568,0,4,0
1582561863250,2642208,0,4,0
1582561863349,2639866,0,4,0
1582561863450,2638610,0,4,0
1582561863550,2638370,0,4,0
1582561863650,2637759,0,4,0
1582561863750,2636587,0,4,0
1582561863850,2636343,0,4,0
1582561863950,2635919,0,4,0
1582561864051,2634100,0,4,0
1582561864150,2630248,0,4,0
1582561864250,2627472,0,4,0
1582561864350,2625296,0,4,0
1582561864451,2623873,0,4,0
1582561864551,2623187,0,4,0
1582561864651,2622821,0,4,0
1582561864751,2621730,0,4,0
1582561864851,2620180,0,4,0
1582561864951,2616408,0,4,0
1582561865041,2614152,0,4,0
1582561865141,2612605,0,4,0
1582561865241,2610831,0,4,0
1582561865340,2609904,0,4,0
1582561865441,2611116,0,4,0
1582561865541,2613873,0,4,0
1582561865641,2614881,0,4,0
1582561865742,2613114,0,4,0
1582561865841,2611998,0,4,0
1582561865941,2611932,0,4,0
1582561866041,2612716,0,4,0
1582561866141,2614148,0,4,0
1582561866242,2614818,0,4,0
1582561866341,2612786,0,4,0
1582561866442,2608211,0,4,0
1582561866542,2606748,0,4,0
1582561866642,2606241,0,4,0
1582561866742,2605619,0,4,0
1582561866842,2605904,0,4,0
1582561866942,2607019,0,4,0
1582561867042,2608670,0,4,0
1582561867142,2609215,0,4,0
1582561867243,2609513,0,4,0
1582561867342,2609929,0,4,0
1582561867443,2610790,0,4,0
1582561867543,2611535,0,4,0
1582561867642,2611747,0,4,0
1582561867743,2611227,0,4,0
1582561867843,2610017,0,4,0
1582561867943,2607665,0,4,0
1582561868043,2606811,2,4,b
1582561868143,2607082,2,4,b
1582561868243,2608004,2,4,b
1582561868342,2609115,2,4,b
1582561868444,2609949,2,4,b
1582561868543,2610747,2,4,b
1582561868644,2610464,2,4,b
1582561868744,2610151,2,4,b
1582561868843,2610488,2,4,b
1582561868954,2610652,2,4,b
1582561869054,2611842,2,4,b
1582561869154,2613669,2,4,b
1582561869244,2616307,2,4,b
1582561869353,2617647,2,4,b
1582561869454,2617955,2,4,b
1582561869544,2617810,2,4,b
1582561869654,2617599,2,4,b
1582561869755,2617670,2,4,b
1582561869854,2617985,2,4,b
1582561869955,2618838,2,4,b
1582561870054,2620354,2,4,b
1582561870154,2620645,2,4,b
1582561870255,2621204,2,4,b
1582561870354,2621897,2,4,b
1582561870455,2622595,2,4,b
1582561870555,2622245,2,4,b
1582561870657,2621959,2,4,b
1582561870745,2622142,2,4,b
1582561870845,2622057,2,4,b
1582561870945,2620534,2,4,b
1582561871045,2619613,2,4,b
1582561871145,2618409,2,4,b
1582561871245,2620394,2,4,b
1582561871344,2622770,2,4,b
1582561871445,2624740,2,4,b
1582561871545,2626357,2,4,b
1582561871645,2627760,2,4,b
1582561871745,2628331,2,4,b
1582561871845,2629032,2,4,b
1582561871945,2629585,2,4,b
1582561872045,2629449,2,4,b
1582561872145,2629755,2,4,b
1582561872246,2629327,2,4,b
1582561872355,2628739,2,4,b
1582561872456,2629660,2,4,b
1582561872556,2631157,2,4,b
1582561872656,2632924,2,4,b
1582561872756,2633395,2,4,b
1582561872856,2633780,2,4,b
1582561872956,2633619,2,4,b
1582561873056,2633724,2,4,b
1582561873156,2634108,2,4,b
1582561873257,2633340,2,4,b
1582561873356,2632778,2,4,b
1582561873457,2631519,2,4,b
1582561873557,2632127,2,4,b
1582561873657,2635763,2,4,b
1582561873757,2635561,2,4,b
1582561873857,2635410,2,4,b
1582561873957,2634951,2,4,b
1582561874058,2632805,2,4,b
1582561874157,2631401,2,4,b
1582561874257,2630550,2,4,b
1582561874356,2629544,2,4,b
1582561874457,2629732,2,4,b
1582561874558,2632369,2,4,b
1582561874657,2633873,2,4,b
1582561874758,2632212,2,4,b
1582561874858,2631771,2,4,b
1582561874958,2631844,2,4,b
1582561875058,2634060,2,4,b
1582561875158,2635788,2,4,b
1582561875258,2637322,2,4,b
1582561875357,2637809,2,4,b
1582561875458,2639278,2,4,b
1582561875558,2639330,2,4,b
1582561875658,2639614,2,4,b
1582561875748,2639443,2,4,b
1582561875848,2638990,2,4,b
1582561875948,2638689,2,4,b
1582561876048,2638802,2,4,b
1582561876148,2639322,2,4,b
1582561876248,2639461,2,4,b
1582561876348,2639189,2,4,b
1582561876449,2637910,2,4,b
1582561876549,2636304,2,4,b
1582561876650,2635990,2,4,b
1582561876750,2636391,2,4,b
1582561876850,2638664,2,4,b
1582561876950,2637579,2,4,b
1582561877050,2635088,0,4,0
1582561877150,2634548,0,4,0
1582561877250,2633678,0,4,0
1582561877349,2632709,0,4,0
1582561877460,2632421,0,4,0
1582561877560,2631644,0,4,0
1582561877660,2630521,0,4,0
1582561877760,2628280,0,4,0
1582561877860,2626680,0,4,0
1582561877960,2625583,0,4,0
1582561878060,2624631,0,4,0
1582561878160,2624059,0,4,0
1582561878260,2623677,0,4,0
1582561878359,2623146,0,4,0
1582561878460,2621378,0,4,0
1582561878560,2620227,0,4,0
1582561878660,2619452,0,4,0
1582561878761,2618672,0,4,0
1582561878860,2618589,0,4,0
1582561878960,2618532,0,4,0
1582561879061,2617768,0,4,0
1582561879161,2616228,0,4,0
1582561879261,2615691,0,4,0
1582561879360,2615177,0,4,0
1582561879461,2614758,0,4,0
1582561879561,2614940,0,4,0
1582561879661,2615242,0,4,0
1582561879761,2614529,0,4,0
1582561879861,2613114,0,4,0
1582561879961,2612491,0,4,0
1582561880062,2612167,0,4,0
1582561880162,2612039,0,4,0
1582561880261,2612199,0,4,0
1582561880360,2612754,0,4,0
1582561880462,2613257,0,4,0
1582561880561,2613719,0,4,0
1582561880661,2612427,0,4,0
1582561880752,2611668,0,4,0
1582561880851,2611180,0,4,0
1582561880950,2610934,0,4,0
1582561881050,2611410,0,4,0
1582561881150,2611934,0,4,0
1582561881250,2612643,0,4,0
1582561881350,2613301,0,4,0
1582561881450,2613880,0,4,0
1582561881550,2613160,0,4,0
1582561881650,2612850,0,4,0
1582561881751,2613090,0,4,0
1582561881851,2613170,0,4,0
1582561881951,2613657,0,4,0
1582561882051,2614428,0,4,0
1582561882151,2615257,0,4,0
1582561882251,2616035,0,4,0
1582561882361,2616767,0,4,0
1582561882461,2616197,0,4,0
1582561882561,2616229,0,4,0
1582561882661,2616406,0,4,0
1582561882751,2616687,0,4,0
1582561882851,2617203,0,4,0
1582561882951,2617916,0,4,0
1582561883051,2618638,0,4,0
1582561883151,2619419,0,4,0
1582561883252,2619971,0,4,0
1582561883352,2619330,0,4,0
1582561883452,2618868,0,4,0
1582561883552,2618970,0,4,0
1582561883651,2618793,0,4,0
1582561883752,2619177,0,4,0
1582561883852,2619575,0,4,0
1582561883952,2620147,0,4,0
1582561884052,2620876,0,4,0
1582561884152,2621334,0,4,0
1582561884252,2620611,0,4,0
1582561884352,2619936,0,4,0
1582561884452,2619713,0,4,0
1582561884553,2619547,0,4,0
1582561884652,2619741,0,4,0
1582561884753,2620021,0,4,0
1582561884852,2620563,0,4,0
1582561884953,2620960,0,4,0
1582561885053,2621495,0,4,0
1582561885153,2620807,0,4,0
1582561885263,2620219,0,4,0
1582561885363,2620051,0,4,0
1582561885463,2619824,0,4,0
1582561885563,2619867,0,4,0
1582561885663,2620025,0,4,0
1582561885754,2620365,0,4,0
1582561885853,2620662,0,4,0
1582561885954,2619616,0,4,0
1582561886054,2618981,0,4,0
1582561886154,2618786,0,4,0
1582561886254,2618455,0,4,0
1582561886354,2618596,0,4,0
1582561886454,2619014,0,4,0
1582561886554,2619327,0,4,0
1582561886654,2619321,0,4,0
1582561886754,2618255,0,4,0
1582561886864,2617710,0,4,0
1582561886954,2617243,0,4,0
1582561887054,2617051,0,4,0
1582561887154,2617369,0,4,0
1582561887254,2617677,0,4,0
1582561887354,2618098,0,4,0
1582561887454,2618188,0,4,0
1582561887565,2616992,0,4,0
1582561887665,2616320,0,4,0
1582561887766,2616008,0,4,0
1582561887865,2615859,0,4,0
1582561887965,2615873,0,4,0
1582561888065,2616271,0,4,0
1582561888165,2616653,0,4,0
1582561888265,2617341,0,4,0
1582561888365,2616698,0,4,0
1582561888465,2615811,0,4,0
1582561888565,2615537,0,4,0
1582561888665,2615348,0,4,0
1582561888765,2615457,0,4,0
1582561888865,2615699,0,4,0
1582561888966,2616275,0,4,0
1582561889066,2616949,0,4,0
1582561889166,2617695,0,4,0
1582561889266,2617981,0,4,0
1582561889366,2617278,0,4,0
1582561889466,2616849,0,4,0
1582561889566,2616931,0,4,0
1582561889666,2616953,0,4,0
1582561889766,2617265,0,4,0
1582561889866,2617796,0,4,0
1582561889966,2618464,0,4,0
1582561890066,2619151,0,4,0
1582561890167,2619309,0,4,0
1582561890257,2618591,0,4,0
1582561890356,2618649,0,4,0
1582561890457,2618609,0,4,0
1582561890556,2618749,0,4,0
1582561890657,2619042,0,4,0
1582561890757,2619723,0,4,0
1582561890856,2620326,0,4,0
1582561890957,2621048,0,4,0
1582561891057,2621436,0,4,0
1582561891157,2620455,0,4,0
1582561891257,2620180,0,4,0
1582561891357,2620194,0,4,0
1582561891457,2619904,0,4,0
1582561891559,2620251,0,4,0
1582561891657,2620617,0,4,0
1582561891757,2621067,0,4,0
1582561891857,2621693,0,4,0
1582561891957,2621949,0,4,0
1582561892058,2621028,0,4,0
1582561892158,2620453,0,4,0
1582561892268,2620212,0,4,0
1582561892358,2620230,0,4,0
1582561892468,2620225,0,4,0
1582561892568,2620715,0,4,0
1582561892668,2621320,0,4,0
1582561892768,2621785,0,4,0
1582561892868,2622128,0,4,0
1582561892968,2621228,0,4,0
1582561893068,2620818,0,4,0
1582561893168,2620849,0,4,0
1582561893268,2620658,0,4,0
1582561893369,2620832,0,4,0
1582561893469,2621257,0,4,0
1582561893569,2621707,0,4,0
1582561893669,2622241,0,4,0
1582561893769,2622451,0,4,0
1582561893869,2621623,0,4,0
1582561893969,2621055,0,4,0
1582561894069,2621135,0,4,0
1582561894169,2621082,0,4,0
1582561894269,2621212,0,4,0
1582561894369,2621633,0,4,0
1582561894469,2622061,0,4,0
1582561894570,2622600,0,4,0
1582561894669,2623135,0,4,0
1582561894769,2622332,0,4,0
1582561894869,2621987,0,4,0
1582561894969,2621988,0,4,0
1582561895059,2622093,0,4,0
1582561895159,2622331,0,4,0
1582561895260,2622780,0,4,0
1582561895359,2623463,0,4,0
1582561895460,2623969,0,4,0
1582561895560,2624671,0,4,0
1582561895660,2624195,0,4,0
1582561895760,2624041,0,4,0
1582561895860,2624163,0,4,0
1582561895960,2624190,0,4,0
1582561896060,2624408,0,4,0
1582561896160,2625018,0,4,0
1582561896260,2625391,0,4,0
1582561896360,2626091,0,4,0
1582561896460,2626640,0,4,0
1582561896560,2626095,0,4,0
1582561896660,2625940,0,4,0
1582561896761,2625924,0,4,0
1582561896861,2625883,0,4,0
1582561896961,2626181,0,4,0
1582561897061,2626646,0,4,0
1582561897161,2627068,0,4,0
1582561897261,2627520,0,4,0
1582561897371,2628141,0,4,0
1582561897461,2627684,0,4,0
1582561897561,2627159,0,4,0
1582561897661,2626863,0,4,0
1582561897761,2626446,0,4,0
1582561897861,2626877,0,4,0
1582561897961,2628145,0,4,0
1582561898062,2629190,0,4,0
1582561898162,2630318,0,4,0
1582561898262,2631537,0,4,0
1582561898362,2632371,0,4,0
1582561898462,2631922,0,4,0
1582561898562,2631854,0,4,0
1582561898662,2631964,0,4,0
1582561898762,2631964,0,4,0
1582561898862,2631868,0,4,0
1582561898972,2632228,0,4,0
1582561899073,2632416,0,4,0
1582561899173,2632729,0,4,0
1582561899272,2632832,0,4,0
1582561899372,2631811,0,4,0
1582561899473,2631314,0,4,0
1582561899573,2631167,0,4,0
1582561899673,2631151,0,4,0
1582561899773,2631525,0,4,0
1582561899874,2631586,0,4,0
1582561899973,2631759,0,4,0
1582561900073,2632155,0,4,0
1582561900173,2631893,0,4,0
1582561900273,2632584,0,4,0
1582561900373,2633924,0,4,0
1582561900473,2635092,0,4,0
1582561900573,2636540,0,4,0
1582561900673,2637551,0,4,0
1582561900763,2638144,0,4,0
1582561900863,2638030,0,4,0
1582561900963,2638088,0,4,0
1582561901063,2636397,0,4,0
1582561901164,2635380,0,4,0
1582561901264,2634528,0,4,0
1582561901364,2633973,0,4,0
1582561901464,2633467,0,4,0
1582561901564,2633400,0,4,0
1582561901664,2633603,0,4,0
1582561901766,2633900,0,4,0
1582561901864,2633862,0,4,0
1582561901964,2632469,0,4,0
1582561902064,2631329,0,4,0
1582561902164,2630713,0,4,0
1582561902264,2629629,0,4,0
1582561902364,2629134,0,4,0
1582561902465,2628925,0,4,0
1582561902565,2628860,0,4,0
1582561902665,2629085,0,4,0
1582561902765,2627720,0,4,0
1582561902865,2626427,0,4,0
1582561902965,2625729,0,4,0
1582561903065,2625017,0,4,0
1582561903165,2624874,0,4,0
1582561903265,2625031,0,4,0
1582561903375,2625476,0,4,0
1582561903477,2625406,0,4,0
1582561903575,2624129,0,4,0
1582561903676,2623225,0,4,0
1582561903776,2622956,0,4,0
1582561903876,2622625,0,4,0
1582561903976,2622788,0,4,0
1582561904077,2622501,0,4,0
1582561904176,2622711,0,4,0
1582561904276,2623086,0,4,0
1582561904376,2623291,0,4,0
1582561904476,2622104,0,4,0
1582561904576,2620928,0,4,0
1582561904676,2619680,0,4,0
1582561904776,2619107,0,4,0
1582561904876,2618669,0,4,0
1582561904976,2618719,0,4,0
1582561905078,2619285,0,4,0
1582561905177,2619875,0,4,0
1582561905276,2620557,0,4,0
1582561905376,2619959,0,4,0
1582561905477,2619691,0,4,0
1582561905577,2619945,0,4,0
1582561905677,2620309,0,4,0
1582561905767,2620892,0,4,0
1582561905867,2621616,0,4,0
1582561905967,2622482,0,4,0
1582561906067,2623469,0,4,0
1582561906167,2624528,0,4,0
1582561906267,2624503,0,4,0
1582561906367,2624149,0,4,0
1582561906467,2624356,0,4,0
1582561906567,2624655,0,4,0
1582561906667,2625247,0,4,0
1582561906767,2625974,0,4,0
1582561906867,2626691,0,4,0
1582561906967,2627615,0,4,0
1582561907067,2627992,0,4,0
1582561907168,2627416,0,4,0
1582561907268,2626892,0,4,0
1582561907368,2626917,0,4,0
1582561907468,2626791,0,4,0
1582561907568,2627295,0,4,0
1582561907668,2627786,0,4,0
1582561907768,2628564,0,4,0
1582561907868,2629359,0,4,0
1582561907968,2629655,0,4,0
1582561908068,2628340,0,4,0
1582561908168,2627324,0,4,0
1582561908268,2626866,0,4,0
1582561908369,2626697,0,4,0
1582561908480,2626607,0,4,0
1582561908580,2626660,0,4,0
1582561908669,2626874,0,4,0
1582561908779,2627632,0,4,0
1582561908880,2628402,0,4,0
1582561908980,2627804,0,4,0
1582561909080,2626502,0,4,0
1582561909180,2626213,0,4,0
1582561909280,2625443,0,4,0
1582561909381,2625064,0,4,0
1582561909481,2625162,0,4,0
1582561909581,2625159,0,4,0
1582561909681,2624816,0,4,0
1582561909781,2625036,0,4,0
1582561909881,2624455,0,4,0
1582561909981,2624370,0,4,0
1582561910082,2624967,0,4,0
1582561910182,2625994,0,4,0
1582561910281,2627870,0,4,0
1582561910381,2628726,0,4,0
1582561910482,2630440,0,4,0
1582561910581,2631489,0,4,0
1582561910681,2632138,0,4,0
1582561910771,2632206,0,4,0
1582561910871,2632795,0,4,0
1582561910971,2633125,0,4,0
1582561911072,2633743,0,4,0
1582561911172,2634521,0,4,0
1582561911272,2634508,0,4,0
1582561911372,2634249,0,4,0
1582561911472,2633536,0,4,0
1582561911571,2632896,0,4,0
1582561911672,2632189,0,4,0
1582561911772,2631894,0,4,0
1582561911872,2632139,0,4,0
1582561911972,2632300,0,4,0
1582561912072,2632390,0,4,0
1582561912172,2632027,0,4,0
1582561912283,2631299,0,4,0
1582561912372,2630802,0,4,0
1582561912483,2630719,0,4,0
1582561912583,2630572,0,4,0
1582561912683,2630989,0,4,0
1582561912783,2631482,0,4,0
1582561912883,2631826,0,4,0
1582561912983,2631136,0,4,0
1582561913083,2630595,0,4,0
1582561913183,2630623,0,4,0
1582561913283,2630773,0,4,0
1582561913383,2630977,0,4,0
1582561913484,2631314,0,4,0
1582561913583,2631978,0,4,0
1582561913684,2632422,0,4,0
1582561913784,2631577,0,4,0
1582561913884,2631032,0,4,0
1582561913984,2630872,0,4,0
1582561914084,2630837,0,4,0
1582561914184,2631064,0,4,0
1582561914284,2631401,0,4,0
1582561914384,2631696,0,4,0
1582561914484,2632190,0,4,0
1582561914584,2631649,0,4,0
1582561914684,2631350,0,4,0
1582561914786,2631554,0,4,0
1582561914886,2631864,0,4,0
1582561914985,2632215,0,4,0
1582561915085,2632521,0,4,0
1582561915185,2633274,0,4,0
1582561915286,2633114,0,4,0
1582561915385,2633394,0,4,0
1582561915485,2633777,0,4,0
1582561915585,2634032,0,4,0
1582561915685,2634693,0,4,0
1582561915775,2635394,0,4,0
1582561915875,2636010,0,4,0
1582561915975,2636185,0,4,0
1582561916075,2636176,0,4,0
1582561916175,2636264,0,4,0
1582561916275,2636643,0,4,0
1582561916375,2636843,0,4,0
1582561916475,2637467,0,4,0
1582561916575,2638190,0,4,0
1582561916675,2638335,0,4,0
1582561916775,2638150,0,4,0
1582561916876,2638159,0,4,0
1582561916975,2638265,0,4,0
1582561917076,2638512,0,4,0
1582561917176,2638927,0,4,0
1582561917276,2639306,0,4,0
1582561917386,2639309,0,4,0
1582561917486,2638393,0,4,0
1582561917586,2637763,0,4,0
1582561917686,2637514,0,4,0
1582561917786,2637312,0,4,0
1582561917886,2637377,0,4,0
1582561917987,2637533,0,4,0
1582561918087,2636754,0,4,0
1582561918186,2634883,0,4,0
1582561918287,2634039,0,4,0
1582561918387,2634702,0,4,0
1582561918487,2637526,0,4,0
1582561918587,2638504,0,4,0
1582561918686,2639385,0,4,0
1582561918787,2638639,0,4,0
1582561918887,2637042,0,4,0
1582561918987,2634310,0,4,0
1582561919087,2632334,0,4,0
1582561919188,2630223,0,4,0
1582561919287,2629892,0,4,0
1582561919387,2630581,0,4,0
1582561919487,2626700,0,4,0
1582561919588,2622017,0,4,0
1582561919687,2618407,0,4,0
1582561919788,2615104,0,4,0
1582561919888,2612450,0,4,0
1582561919988,2610150,0,4,0
1582561920088,2608600,0,4,0
1582561920188,2606329,0,4,0
1582561920288,2601617,0,4,0
1582561920388,2602709,0,4,0
1582561920488,2604580,0,4,0
1582561920588,2603462,0,4,0
1582561920688,2601579,0,4,0
1582561920778,2601472,0,4,0
1582561920878,2600001,0,4,0
1582561920978,2600096,0,4,0
1582561921078,2599817,0,4,0
1582561921178,2600227,0,4,0
1582561921279,2600377,0,4,0
1582561921379,2600356,0,4,0
1582561921479,2598815,0,4,0
1582561921578,2598127,0,4,0
1582561921679,2598014,0,4,0
1582561921779,2598299,0,4,0
1582561921879,2598219,0,4,0
1582561921979,2598839,0,4,0
1582561922079,2598540,0,4,0
1582561922179,2597909,0,4,0
1582561922289,2597498,0,4,0
1582561922379,2596792,0,4,0
1582561922490,2596459,0,4,0
1582561922589,2596505,0,4,0
1582561922690,2596622,0,4,0
1582561922790,2595702,0,4,0
1582561922890,2595219,0,4,0
1582561922990,2595160,0,4,0
1582561923090,2595211,0,4,0
1582561923190,2595593,0,4,0
1582561923290,2595907,0,4,0
1582561923390,2595885,0,4,0
1582561923490,2595422,0,4,0
1582561923590,2595122,0,4,0
1582561923690,2595360,0,4,0
1582561923790,2595443,0,4,0
1582561923890,2595725,0,4,0
1582561923991,2596130,0,4,0
1582561924091,2596188,0,4,0
1582561924191,2595735,0,4,0
1582561924291,2595627,0,4,0
1582561924391,2595719,0,4,0
1582561924491,2595949,0,4,0
1582561924591,2596164,0,4,0
1582561924691,2596770,0,4,0
1582561924791,2597195,0,4,0
1582561924891,2596835,0,4,0
1582561924981,2596543,0,4,0
1582561925081,2596629,0,4,0
1582561925181,2596699,0,4,0
1582561925281,2597469,0,4,0
1582561925381,2599703,0,4,0
1582561925482,2602207,0,4,0
1582561925581,2603884,0,4,0
1582561925681,2604954,0,4,0
1582561925782,2605407,0,4,0
1582561925882,2606282,0,4,0
1582561925982,2607083,0,4,0
1582561926082,2607625,0,4,0
1582561926182,2608809,0,4,0
1582561926282,2610009,0,4,0
1582561926382,2611070,0,4,0
1582561926482,2611659,0,4,0
1582561926582,2611302,0,4,0
1582561926682,2611336,0,4,0
1582561926782,2611305,0,4,0
1582561926882,2611171,0,4,0
1582561926982,2611169,0,4,0
1582561927082,2611544,0,4,0
1582561927182,2612054,0,4,0
1582561927293,2612255,0,4,0
1582561927387,2611645,0,4,0
1582561927483,2611332,0,4,0
1582561927583,2611325,0,4,0
1582561927683,2611424,0,4,0
1582561927783,2611699,0,4,0
1582561927883,2612204,0,4,0
1582561927983,2612883,0,4,0
1582561928083,2613402,0,4,0
1582561928183,2612530,0,4,0
1582561928285,2611880,0,4,0
1582561928383,2611704,0,4,0
1582561928484,2611710,0,4,0
1582561928583,2611770,0,4,0
1582561928683,2612030,0,4,0
1582561928783,2612439,0,4,0
1582561928884,2613006,0,4,0
1582561928994,2612804,0,4,0
1582561929094,2611845,0,4,0
1582561929184,2611217,0,4,0
1582561929294,2610924,0,4,0
1582561929394,2610732,0,4,0
1582561929495,2610930,0,4,0
1582561929594,2611023,0,4,0
1582561929694,2611666,0,4,0
1582561929796,2612077,0,4,0
1582561929895,2611657,0,4,0
1582561929996,2610705,0,4,0
1582561930093,2610018,0,4,0
1582561930193,2609894,0,4,0
1582561930293,2609801,0,4,0
1582561930393,2609952,0,4,0
1582561930493,2610278,0,4,0
1582561930594,2610774,0,4,0
1582561930694,2611216,0,4,0
1582561930783,2610978,0,4,0
1582561930883,2610215,0,4,0
1582561930983,2609989,0,4,0
1582561931083,2609940,0,4,0
1582561931184,2609831,0,4,0
1582561931284,2610109,0,4,0
1582561931384,2610587,0,4,0
1582561931484,2611203,0,4,0
1582561931584,2611605,0,4,0
1582561931684,2610823,0,4,0
1582561931785,2610307,0,4,0
1582561931884,2610161,0,4,0
1582561931984,2609998,0,4,0
1582561932084,2610106,0,4,0
1582561932184,2610513,0,4,0
1582561932284,2611036,0,4,0
1582561932384,2611457,0,4,0
1582561932495,2611577,0,4,0
1582561932595,2610676,0,4,0
1582561932695,2610246,0,4,0
1582561932795,2609993,0,4,0
1582561932895,2609695,0,4,0
1582561932995,2609764,0,4,0
1582561933095,2610109,0,4,0
1582561933195,2610543,0,4,0
1582561933295,2611024,0,4,0
1582561933395,2611176,0,4,0
1582561933495,2610206,0,4,0
1582561933596,2609422,0,4,0
1582561933695,2609199,0,4,0
1582561933796,2608872,0,4,0
1582561933896,2608937,0,4,0
1582561933995,2609180,0,4,0
1582561934097,2609441,0,4,0
1582561934196,2609845,0,4,0
1582561934296,2608756,0,4,0
1582561934396,2607987,0,4,0
1582561934496,2607633,0,4,0
1582561934596,2607299,0,4,0
1582561934696,2607256,0,4,0
1582561934796,2607661,0,4,0
1582561934896,2607857,0,4,0
1582561934996,2608313,0,4,0
1582561935098,2607812,0,4,0
1582561935197,2606735,0,4,0
1582561935296,2605700,0,4,0
1582561935397,2605286,0,4,0
1582561935497,2604959,0,4,0
1582561935597,2605283,0,4,0
1582561935697,2605489,0,4,0
1582561935787,2605863,0,4,0
1582561935887,2606491,0,4,0
1582561935987,2606176,0,4,0
1582561936087,2604967,0,4,0
1582561936187,2604202,0,4,0
1582561936287,2603977,0,4,0
1582561936387,2603672,0,4,0
1582561936487,2604126,0,4,0
1582561936587,2604342,0,4,0
1582561936687,2604897,0,4,0
1582561936787,2605575,0,4,0
1582561936887,2605694,0,4,0
1582561936987,2604907,0,4,0
1582561937087,2604435,0,4,0
1582561937188,2604546,0,4,0
1582561937288,2604555,0,4,0
1582561937388,2605013,0,4,0
1582561937488,2605484,0,4,0
1582561937588,2606300,0,4,0
1582561937688,2607052,0,4,0
1582561937788,2606728,0,4,0
1582561937888,2606185,0,4,0
1582561937988,2606278,0,4,0
1582561938099,2606301,0,4,0
1582561938198,2606547,0,4,0
1582561938298,2607238,0,4,0
1582561938399,2607962,0,4,0
1582561938499,2608753,0,4,0
1582561938599,2609536,0,4,0
1582561938699,2609733,0,4,0
1582561938799,2609209,0,4,0
1582561938899,2609117,0,4,0
1582561938999,2609346,0,4,0
1582561939099,2609533,0,4,0
1582561939199,2610305,0,4,0
1582561939299,2610885,0,4,0
1582561939399,2611666,0,4,0
1582561939499,2612474,0,4,0
1582561939599,2613059,0,4,0
1582561939699,2612679,0,4,0
1582561939800,2612470,0,4,0
1582561939900,2612819,0,4,0
1582561940000,2613143,0,4,0
1582561940101,2613605,0,4,0
1582561940200,2614363,0,4,0
1582561940300,2615025,0,4,0
1582561940400,2616120,0,4,0
1582561940500,2616347,0,4,0
1582561940600,2616021,0,4,0
1582561940701,2616337,0,4,0
1582561940791,2617322,0,4,0
1582561940891,2617669,0,4,0
1582561940991,2617742,0,4,0
1582561941091,2618173,0,4,0
1582561941191,2618373,0,4,0
1582561941291,2618013,0,4,0
1582561941391,2617994,0,4,0
1582561941491,2618069,0,4,0
1582561941591,2618167,0,4,0
1582561941692,2619748,0,4,0
1582561941792,2621276,0,4,0
1582561941892,2622838,0,4,0
1582561941992,2623271,0,4,0
1582561942093,2622656,0,4,0
1582561942192,2622146,0,4,0
1582561942293,2622126,0,4,0
1582561942393,2622192,0,4,0
1582561942493,2621896,0,4,0
1582561942592,2621545,0,4,0
1582561942693,2621481,0,4,0
1582561942793,2621077,0,4,0
1582561942893,2619813,0,4,0
1582561942993,2618891,0,4,0
1582561943093,2618178,0,4,0
1582561943193,2617945,0,4,0
1582561943293,2618101,0,4,0
1582561943393,2618366,0,4,0
1582561943493,2618284,0,4,0
1582561943593,2617293,0,4,0
1582561943693,2616260,0,4,0
1582561943795,2617000,0,4,0
1582561943894,2618123,0,4,0
1582561943994,2618520,0,4,0
1582561944095,2618567,0,4,0
1582561944194,2618481,0,4,0
1582561944294,2618513,0,4,0
1582561944394,2618278,0,4,0
1582561944504,2618584,0,4,0
1582561944594,2619246,0,4,0
1582561944694,2619520,0,4,0
1582561944804,2620012,0,4,0
1582561944904,2620732,0,4,0
1582561945004,2621672,0,4,0
1582561945104,2621650,0,4,0
1582561945204,2621703,0,4,0
1582561945305,2622007,0,4,0
1582561945405,2622059,0,4,0
1582561945505,2622778,0,4,0
1582561945605,2623639,0,4,0
1582561945705,2624509,0,4,0
1582561945807,2625877,0,4,0
1582561945905,2626543,0,4,0
1582561946005,2626845,0,4,0
1582561946106,2627050,0,4,0
1582561946205,2627785,0,4,0
1582561946305,2628799,0,4,0
1582561946406,2629739,0,4,0
1582561946506,2629743,0,4,0
1582561946606,2630166,0,4,0
1582561946706,2630487,0,4,0
1582561946806,2630767,0,4,0
1582561946906,2631082,0,4,0
1582561947006,2631753,0,4,0
1582561947106,2632272,0,4,0
1582561947206,2632252,0,4,0
1582561947306,2632256,0,4,0
1582561947406,2632492,0,4,0
1582561947506,2632956,0,4,0
1582561947606,2633483,0,4,0
1582561947706,2634001,0,4,0
1582561947806,2634626,0,4,0
1582561947896,2635268,0,4,0
1582561947996,2635175,0,4,0
1582561948096,2635036,0,4,0
1582561948196,2635153,0,4,0
1582561948296,2635303,0,4,0
1582561948396,2635580,0,4,0
1582561948497,2635936,0,4,0
1582561948597,2636239,0,4,0
1582561948697,2636765,0,4,0
1582561948797,2637049,0,4,0
1582561948897,2636621,0,4,0
1582561948997,2636315,0,4,0
1582561949097,2636168,1,4,d
1582561949197,2636150,1,4,d
1582561949297,2636200,1,4,d
1582561949397,2636340,1,4,d
1582561949508,2636630,1,4,d
1582561949607,2636905,1,4,d
1582561949708,2636446,1,4,d
1582561949808,2635599,1,4,d
1582561949908,2635020,1,4,d
1582561950008,2634348,1,4,d
1582561950108,2633774,1,4,d
1582561950211,2633377,1,4,d
1582561950298,2633023,1,4,d
1582561950398,2632614,1,4,d
1582561950498,2632000,1,4,d
1582561950598,2631178,1,4,d
1582561950698,2629696,1,4,d
1582561950798,2628281,1,4,d
1582561950898,2627673,1,4,d
1582561950998,2627339,1,4,d
1582561951098,2627402,0,4,0
1582561951198,2627696,0,4,0
1582561951298,2627884,0,4,0
1582561951398,2628029,0,4,0
1582561951499,2627468,0,4,0
1582561951598,2625638,0,4,0
1582561951699,2624309,0,4,0
1582561951799,2623312,0,4,0
1582561951899,2622324,0,4,0
1582561951999,2621771,0,4,0
1582561952101,2621710,0,4,0
1582561952211,2622181,0,4,0
1582561952311,2622488,0,4,0
1582561952400,2621835,0,4,0
1582561952511,2620117,0,4,0
1582561952610,2619179,0,4,0
1582561952710,2618687,0,4,0
1582561952810,2618245,0,4,0
1582561952910,2618092,0,4,0
1582561953010,2618412,0,4,0
1582561953110,2618566,0,4,0
1582561953210,2619050,0,4,0
1582561953310,2617971,0,4,0
1582561953410,2616726,0,4,0
1582561953510,2616253,0,4,0
1582561953610,2615861,0,4,0
1582561953710,2615857,0,4,0
1582561953810,2616318,0,4,0
1582561953910,2616881,0,4,0
1582561954010,2617950,0,4,0
1582561954111,2619555,0,4,0
1582561954211,2619318,0,4,0
1582561954311,2617402,0,4,0
1582561954411,2617190,0,4,0
1582561954511,2618595,0,4,0
1582561954611,2620848,0,4,0
1582561954711,2623711,0,4,0
1582561954811,2623079,0,4,0
1582561954911,2621010,0,4,0
1582561955001,2620537,0,4,0
1582561955101,2624050,0,4,0
1582561955201,2626943,0,4,0
1582561955301,2630512,0,4,0
1582561955401,2628805,0,4,0
1582561955502,2625776,0,4,0
1582561955601,2623739,0,4,0
1582561955702,2624216,0,4,0
1582561955802,2627049,0,4,0
1582561955902,2628331,0,4,0
1582561956002,2627575,0,4,0
1582561956102,2625097,0,4,0
1582561956202,2622975,0,4,0
1582561956302,2620988,0,4,0
1582561956402,2620376,0,4,0
1582561956502,2619846,0,4,0
1582561956602,2618987,0,4,0
1582561956702,2617481,0,4,0
1582561956802,2617054,0,4,0
1582561956902,2616739,0,4,0
1582561957002,2615538,0,4,0
1582561957102,2614662,0,4,0
1582561957203,2614193,0,4,0
1582561957303,2613271,0,4,0
1582561957419,2613400,0,4,0
1582561957503,2618446,0,4,0
1582561957603,2621781,0,4,0
1582561957703,2621619,0,4,0
1582561957803,2620842,0,4,0
1582561957903,2623539,0,4,0
1582561958003,2627886,0,4,0
1582561958103,2628923,0,4,0
1582561958203,2625742,0,4,0
1582561958303,2623066,0,4,0
1582561958403,2621209,0,4,0
1582561958503,2619830,0,4,0
1582561958603,2618695,0,4,0
1582561958703,2618016,0,4,0
1582561958804,2617666,0,4,0
1582561958904,2617253,0,4,0
1582561959014,2617394,0,4,0
1582561959114,2617177,0,4,0
1582561959214,2618448,0,4,0
1582561959314,2621554,0,4,0
1582561959414,2622740,0,4,0
1582561959514,2624387,0,4,0
1582561959614,2625341,0,4,0
1582561959714,2626113,0,4,0
1582561959816,2626063,0,4,0
1582561959915,2625647,0,4,0
1582561960015,2625674,0,4,0
1582561960115,2625922,0,4,0
1582561960214,2625392,0,4,0
1582561960315,2624435,0,4,0
1582561960415,2624465,0,4,0
1582561960515,2624420,0,4,0
1582561960615,2624504,0,4,0
1582561960705,2624216,0,4,0
1582561960805,2624361,0,4,0
1582561960905,2624517,0,4,0
1582561961005,2624456,0,4,0
1582561961105,2623892,0,4,0
1582561961205,2623651,0,4,0
1582561961305,2623703,0,4,0
1582561961406,2623911,0,4,0
1582561961506,2624398,0,4,0
1582561961605,2624852,0,4,0
1582561961705,2625343,0,4,0
1582561961806,2625249,0,4,0
1582561961906,2625208,0,4,0
1582561962006,2625091,0,4,0
1582561962106,2625212,0,4,0
1582561962206,2625402,0,4,0
1582561962306,2625680,0,4,0
1582561962406,2626142,0,4,0
1582561962506,2626570,0,4,0
1582561962606,2626054,0,4,0
1582561962706,2625814,0,4,0
1582561962806,2625676,0,4,0
1582561962906,2625968,0,4,0
1582561963006,2626221,0,4,0
1582561963106,2626740,0,4,0
1582561963206,2627431,0,4,0
1582561963306,2628041,0,4,0
1582561963407,2627672,0,4,0
1582561963517,2627371,0,4,0
1582561963607,2627209,0,4,0
1582561963717,2627314,0,4,0
1582561963817,2627376,0,4,0
1582561963917,2627780,0,4,0
1582561964017,2628031,0,4,0
1582561964119,2628730,0,4,0
1582561964218,2628768,0,4,0
1582561964318,2628435,0,4,0
1582561964418,2628117,0,4,0
1582561964518,2628004,0,4,0
1582561964618,2627885,0,4,0
1582561964718,2627963,0,4,0
1582561964818,2628128,0,4,0
1582561964918,2628672,0,4,0
1582561965018,2628597,0,4,0
1582561965118,2627957,0,4,0
1582561965218,2627383,0,4,0
1582561965318,2627249,0,4,0
1582561965418,2626913,0,4,0
1582561965518,2626863,0,4,0
1582561965618,2627100,0,4,0
1582561965708,2627425,0,4,0
1582561965808,2627337,0,4,0
1582561965908,2626198,0,4,0
1582561966008,2625399,0,4,0
1582561966108,2624961,0,4,0
1582561966208,2624463,0,4,0
1582561966308,2624201,0,4,0
1582561966409,2624415,0,4,0
1582561966509,2624537,0,4,0
1582561966609,2624809,0,4,0
1582561966709,2623529,0,4,0
1582561966809,2622333,0,4,0
1582561966909,2621390,0,4,0
1582561967009,2620774,0,4,0
1582561967109,2620095,0,4,0
1582561967209,2620026,0,4,0
1582561967309,2620288,0,4,0
1582561967409,2620428,0,4,0
1582561967509,2620208,0,4,0
1582561967608,2618512,0,4,0
1582561967708,2617571,0,4,0
1582561967808,2616835,0,4,0
1582561967908,2616085,0,4,0
1582561968008,2615869,0,4,0
1582561968108,2615940,0,4,0
1582561968208,2616032,0,4,0
1582561968308,2616256,0,4,0
1582561968410,2614767,0,4,0
1582561968519,2613755,0,4,0
1582561968609,2613195,0,4,0
1582561968719,2612862,0,4,0
1582561968819,2612861,0,4,0
1582561968919,2613047,0,4,0
1582561969019,2613503,0,4,0
1582561969119,2613927,0,4,0
1582561969219,2612818,0,4,0
1582561969319,2611736,0,4,0
1582561969421,2611336,0,4,0
1582561969520,2610999,0,4,0
1582561969620,2610915,0,4,0
1582561969719,2611148,0,4,0
1582561969820,2611770,0,4,0
1582561969920,2612260,0,4,0
1582561970020,2612847,1,4,d
1582561970121,2611848,1,4,d
1582561970220,2611029,1,4,d
1582561970320,2610529,1,4,d
1582561970420,2610407,1,4,d
1582561970520,2610372,1,4,d
1582561970620,2610771,1,4,d
1582561970710,2611373,1,4,d
1582561970810,2612059,1,4,d
1582561970910,2612708,1,4,d
1582561971010,2612419,1,4,d
1582561971110,2611602,1,4,d
1582561971210,2611032,1,4,d
1582561971310,2610963,1,4,d
1582561971410,2611006,1,4,d
1582561971510,2611165,1,4,d
1582561971610,2611702,1,4,d
1582561971711,2612130,1,4,d
1582561971811,2612871,1,4,d
1582561971911,2612331,1,4,d
1582561972011,2611518,1,4,d
1582561972111,2611114,1,4,d
1582561972211,2610981,1,4,d
1582561972311,2610970,1,4,d
1582561972421,2611395,1,4,d
1582561972521,2611745,1,4,d
1582561972621,2612446,1,4,d
1582561972721,2613087,1,4,d
1582561972822,2613081,1,4,d
1582561972922,2611909,1,4,d
1582561973022,2611030,1,4,d
1582561973122,2610814,1,4,d
1582561973222,2610683,1,4,d
1582561973322,2610785,1,4,d
1582561973422,2611237,1,4,d
1582561973522,2611639,1,4,d
1582561973622,2612276,1,4,d
1582561973722,2613040,1,4,d
1582561973822,2612672,1,4,d
1582561973922,2611424,1,4,d
1582561974022,2610919,1,4,d
1582561974123,2610583,1,4,d
1582561974223,2610550,1,4,d
1582561974323,2610760,1,4,d
1582561974423,2611384,1,4,d
1582561974523,2611804,1,4,d
1582561974623,2612393,1,4,d
1582561974723,2613303,1,4,d
1582561974823,2612874,1,4,d
1582561974923,2611988,1,4,d
1582561975023,2611611,1,4,d
1582561975123,2611384,1,4,d
1582561975223,2611456,1,4,d
1582561975323,2611772,1,4,d
1582561975423,2612407,1,4,d
1582561975524,2613021,1,4,d
1582561975624,2613656,1,4,d
1582561975715,2613248,1,4,d
1582561975814,2612448,1,4,d
1582561975914,2612143,1,4,d
1582561976014,2612106,1,4,d
1582561976114,2612133,1,4,d
1582561976214,2612622,1,4,d
1582561976314,2613245,1,4,d
1582561976414,2613952,1,4,d
1582561976514,2614763,1,4,d
1582561976614,2614922,1,4,d
1582561976714,2613962,1,4,d
1582561976824,2613748,1,4,d
1582561976924,2613447,1,4,d
1582561977014,2613421,1,4,d
1582561977114,2613556,1,4,d
1582561977214,2613948,1,4,d
1582561977314,2614498,1,4,d
1582561977415,2615266,1,4,d
1582561977525,2616005,1,4,d
1582561977625,2615822,1,4,d
1582561977725,2614857,1,4,d
1582561977826,2614214,1,4,d
1582561977925,2614019,1,4,d
1582561978025,2613883,1,4,d
1582561978125,2613962,1,4,d
1582561978225,2614337,1,4,d
1582561978325,2614606,1,4,d
1582561978425,2615157,1,4,d
1582561978525,2615414,1,4,d
1582561978626,2614341,1,4,d
1582561978726,2613601,1,4,d
1582561978826,2613250,1,4,d
1582561978926,2613057,1,4,d
1582561979026,2613039,1,4,d
1582561979126,2613360,1,4,d
1582561979226,2613817,1,4,d
1582561979326,2614241,1,4,d
1582561979426,2614728,1,4,d
1582561979526,2613728,1,4,d
1582561979626,2612501,1,4,d
1582561979726,2611834,1,4,d
1582561979826,2610935,1,4,d
1582561979917,2610361,1,4,d
1582561980017,2609657,1,4,d
1582561980117,2609651,1,4,d
1582561980217,2610573,1,4,d
1582561980317,2610154,1,4,d
1582561980417,2610098,1,4,d
1582561980517,2610799,1,4,d
1582561980617,2613785,1,4,d
1582561980718,2615682,1,4,d
1582561980817,2617880,1,4,d
1582561980918,2618150,1,4,d
1582561981018,2617469,0,0,0
1582561981119,2617153,0,0,0
1582561981219,2616653,0,0,0
1582561981319,2617013,0,0,0
1582561981419,2615688,0,0,0
1582561981519,2615026,0,0,0
1582561981619,2615621,0,0,0
1582561981719,2618688,0,0,0
1582561981819,2621023,0,0,0
1582561981919,2624372,0,0,0
1582561982019,2626281,0,0,0
1582561982119,2627644,0,0,0
1582561982219,2627224,0,0,0
1582561982330,2626049,0,0,0
1582561982429,2625463,0,0,0
1582561982530,2625977,0,0,0
1582561982629,2626345,0,0,0
1582561982730,2625648,0,0,0
1582561982830,2625481,0,0,0
1582561982930,2625349,0,0,0
1582561983030,2625594,0,0,0
1582561983130,2624250,0,0,0
1582561983230,2622997,0,0,0
1582561983330,2622197,0,0,0
1582561983430,2621778,0,0,0
1582561983530,2621509,0,0,0
1582561983630,2621471,0,0,0
1582561983730,2621674,0,0,0
1582561983831,2622159,0,0,0
1582561983931,2622457,0,0,0
1582561984031,2621375,0,0,0
1582561984131,2620567,0,0,0
1582561984231,2620022,0,0,0
1582561984331,2619911,0,0,0
1582561984431,2619979,0,0,0
1582561984531,2620319,0,0,0
1582561984631,2620798,0,0,0
1582561984731,2621418,0,0,0
1582561984831,2622522,0,0,0
1582561984931,2622370,0,0,0
1582561985031,2621819,0,0,0
1582561985131,2621649,0,0,0
1582561985221,2621227,0,0,0
1582561985321,2622166,0,0,0
1582561985421,2624404,0,0,0
1582561985522,2625877,0,0,0
1582561985621,2627187,0,0,0
1582561985721,2628114,0,0,0
1582561985822,2627877,0,0,0
1582561985922,2627242,0,0,0
1582561986022,2626720,0,0,0
1582561986122,2627916,0,0,0
1582561986222,2630406,0,0,0
1582561986322,2632373,0,0,0
1582561986422,2635999,0,0,0
1582561986522,2639227,0,0,0
1582561986622,2642008,0,0,0
1582561986722,2644008,0,0,0
1582561986822,2645909,0,0,0
1582561986922,2647342,0,0,0
1582561987022,2648840,0,0,0
1582561987122,2650554,0,0,0
1582561987223,2652507,0,0,0
1582561987323,2654376,0,0,0
1582561987423,2654147,0,0,0
1582561987523,2652842,0,0,0
1582561987623,2651773,0,0,0
1582561987723,2650950,0,0,0
1582561987823,2649783,0,0,0
1582561987923,2649244,0,0,0
1582561988023,2648362,0,0,0
1582561988123,2647710,0,0,0
1582561988223,2645462,0,0,0
1582561988323,2643563,0,0,0
1582561988423,2642194,0,0,0
1582561988524,2640723,0,0,0
1582561988623,2639374,0,0,0
1582561988723,2637576,0,0,0
1582561988824,2636736,0,0,0
1582561988925,2636454,0,0,0
1582561989036,2635137,0,0,0
1582561989135,2634444,0,0,0
1582561989235,2635454,0,0,0
1582561989335,2635736,0,0,0
1582561989435,2635507,0,0,0
1582561989535,2635339,0,0,0
1582561989635,2635443,0,0,0
1582561989735,2634371,0,0,0
1582561989836,2633021,0,0,0
1582561989935,2631898,0,0,0
1582561990035,2631197,0,0,0
1582561990135,2630434,0,0,0
1582561990235,2630200,0,0,0
1582561990335,2630129,0,0,0
1582561990435,2629939,0,0,0
1582561990535,2629179,0,0,0
1582561990635,2627612,0,0,0
1582561990725,2626431,0,0,0
1582561990825,2625681,0,0,0
1582561990925,2625011,0,0,0
1582561991025,2624569,0,0,0
1582561991125,2624476,0,0,0
1582561991225,2624362,0,0,0
1582561991325,2623126,0,0,0
1582561991425,2621567,0,0,0
1582561991526,2620523,0,0,0
1582561991626,2619680,0,0,0
1582561991726,2619299,0,0,0
1582561991826,2619286,0,0,0
1582561991926,2619719,0,0,0
1582561992026,2619832,0,0,0
1582561992126,2619676,0,0,0
1582561992226,2618969,0,0,0
1582561992336,2618728,0,0,0
1582561992436,2618606,0,0,0
1582561992536,2619464,0,0,0
1582561992636,2620821,0,0,0
1582561992736,2622520,0,0,0
1582561992836,2622182,0,0,0
1582561992936,2622253,0,0,0
1582561993036,2622605,0,0,0
1582561993137,2622452,0,0,0
1582561993237,2621098,0,0,0
1582561993337,2619948,0,0,0
1582561993437,2621922,0,0,0
1582561993537,2622884,0,0,0
1582561993637,2623441,0,0,0
1582561993737,2623175,0,0,0
1582561993837,2620719,0,0,0
1582561993937,2621820,0,0,0
1582561994037,2623566,0,0,0
1582561994139,2624384,0,0,0
1582561994238,2622830,0,0,0
1582561994338,2619782,0,0,0
1582561994438,2618795,0,0,0
1582561994538,2618342,0,0,0
1582561994638,2618137,0,0,0
1582561994738,2619833,0,0,0
1582561994838,2623318,0,0,0
1582561994938,2624060,0,0,0
1582561995038,2625481,0,0,0
1582561995138,2629363,0,0,0
1582561995238,2631615,0,0,0
1582561995338,2631898,0,0,0
1582561995438,2632373,0,0,0
1582561995538,2633545,0,0,0
1582561995638,2635282,0,0,0
1582561995728,2635735,0,0,0
1582561995828,2635204,0,0,0
1582561995928,2635076,0,0,0
1582561996028,2634995,0,0,0
1582561996128,2636678,0,0,0
1582561996228,2639072,0,0,0
1582561996328,2639496,0,0,0
1582561996429,2638309,0,0,0
1582561996529,2636723,0,0,0
1582561996629,2636115,0,0,0
1582561996729,2635128,0,0,0
1582561996829,2634270,0,0,0
1582561996929,2633573,0,0,0
1582561997029,2633056,0,0,0
1582561997129,2631489,0,0,0
1582561997229,2630057,0,0,0
1582561997329,2629220,0,0,0
1582561997440,2628207,0,0,0
1582561997540,2627695,0,0,0
1582561997640,2627295,0,0,0
1582561997740,2627171,0,0,0
1582561997840,2625416,0,0,0
1582561997940,2623811,0,0,0
1582561998040,2622833,0,0,0
1582561998140,2622016,0,0,0
1582561998240,2621713,0,0,0
1582561998340,2621718,0,0,0
1582561998440,2621735,0,0,0
1582561998540,2621562,0,0,0
1582561998640,2619730,0,0,0
1582561998740,2618605,0,0,0
1582561998841,2618091,0,0,0
1582561998941,2617833,0,0,0
1582561999041,2617821,0,0,0
1582561999142,2618169,0,0,0
1582561999241,2618721,0,0,0
1582561999341,2619151,0,0,0
1582561999441,2618090,0,0,0
1582561999541,2617676,0,0,0
1582561999641,2617734,0,0,0
1582561999741,2617550,0,0,0
1582561999841,2618032,0,0,0
1582561999941,2618669,0,0,0
1582562000041,2619516,0,0,0
1582562000142,2619929,0,0,0
1582562000242,2619601,0,0,0
1582562000342,2619755,0,0,0
1582562000442,2620431,0,0,0
1582562000542,2620847,0,0,0
1582562000642,2621706,0,0,0
1582562000732,2622660,0,0,0
1582562000832,2623783,0,0,0
1582562000932,2624238,0,0,0
1582562001032,2624210,0,0,0
1582562001132,2624745,0,0,0
1582562001232,2625300,0,0,0
1582562001332,2625922,0,0,0
1582562001432,2626904,0,0,0
1582562001532,2627820,0,0,0
1582562001632,2628758,0,0,0
1582562001732,2629625,0,0,0
1582562001832,2629657,0,0,0
1582562001932,2630106,0,0,0
1582562002033,2630712,0,0,0
1582562002132,2631307,0,0,0
1582562002233,2632149,0,0,0
1582562002333,2632923,0,0,0
1582562002443,2633885,0,0,0
1582562002543,2634758,0,0,0
1582562002643,2635178,0,0,0
1582562002733,2635331,0,0,0
1582562002833,2635772,0,0,0
1582562002933,2636286,0,0,0
1582562003033,2636941,0,0,0
1582562003133,2637651,0,0,0
1582562003233,2638391,0,0,0
1582562003333,2639152,0,0,0
1582562003433,2639263,0,0,0
1582562003534,2639528,0,0,0
1582562003633,2639787,0,0,0
1582562003734,2640181,0,0,0
1582562003836,2640602,0,0,0
1582562003934,2641049,0,0,0
1582562004044,2641609,0,0,0
1582562004144,2642143,0,0,0
1582562004234,2641827,0,0,0
1582562004344,2641714,0,0,0
1582562004444,2641789,0,0,0
1582562004544,2641798,0,0,0
1582562004646,2641904,0,0,0
1582562004745,2642262,0,0,0
1582562004846,2642581,0,0,0
1582562004945,2643031,0,0,0
1582562005045,2642473,0,0,0
1582562005145,2641919,0,0,0
1582562005245,2641518,0,0,0
1582562005345,2641178,0,0,0
1582562005445,2641118,0,0,0
1582562005545,2641086,0,0,0
1582562005644,2641345,0,0,0
1582562005734,2641452,0,0,0
1582562005834,2641785,0,0,0
1582562005934,2640866,0,0,0
1582562006034,2640106,0,0,0
1582562006134,2639706,0,0,0
1582562006234,2639326,0,0,0
1582562006334,2638928,0,0,0
1582562006434,2638933,0,0,0
1582562006534,2638926,0,0,0
1582562006634,2638983,0,0,0
1582562006734,2638899,0,0,0
1582562006836,2637732,0,0,0
1582562006934,2637016,0,0,0
1582562007034,2636550,0,0,0
1582562007134,2636108,0,0,0
1582562007235,2635839,0,0,0
1582562007334,2635847,0,0,0
1582562007435,2635944,0,0,0
1582562007545,2636154,0,0,0
1582562007645,2635118,0,0,0
1582562007745,2633827,0,0,0
1582562007845,2633200,0,0,0
1582562007945,2632606,0,0,0
1582562008045,2632070,0,0,0
1582562008145,2632135,0,0,0
1582562008245,2632161,0,0,0
1582562008345,2632302,0,0,0
1582562008446,2632640,0,0,0
1582562008546,2631839,0,0,0
1582562008645,2630785,0,0,0
1582562008746,2630341,0,0,0
1582562008846,2629898,0,0,0
1582562008946,2629837,0,0,0
1582562009046,2629886,0,0,0
1582562009146,2630177,0,0,0
1582562009246,2630425,0,0,0
1582562009346,2630922,0,0,0
1582562009446,2630540,0,0,0
1582562009546,2629853,0,0,0
1582562009646,2629683,0,0,0
1582562009746,2629363,0,0,0
1582562009846,2629364,0,0,0
1582562009946,2629610,0,0,0
1582562010047,2629902,0,0,0
1582562010146,2630492,0,0,0
1582562010251,2630739,0,0,0
1582562010337,2629908,0,0,0
1582562010437,2629638,0,0,0
1582562010537,2629675,0,0,0
1582562010637,2629545,0,0,0
1582562010737,2629816,0,0,0
1582562010837,2630226,0,0,0
1582562010937,2630741,0,0,0
1582562011037,2631183,0,0,0
1582562011137,2631470,0,0,0
1582562011237,2630555,0,0,0
1582562011337,2630256,0,0,0
1582562011437,2629951,0,0,0
1582562011538,2629726,0,0,0
1582562011637,2629947,0,0,0
1582562011737,2630240,0,0,0
1582562011838,2630618,0,0,0
1582562011938,2631116,0,0,0
1582562012038,2631487,0,0,0
1582562012138,2630860,0,0,0
1582562012238,2630276,0,0,0
1582562012338,2629775,0,0,0
1582562012438,2629497,0,0,0
1582562012538,2629129,0,0,0
1582562012638,2629231,0,0,0
1582562012738,2629536,0,0,0
1582562012838,2629874,0,0,0
1582562012939,2630410,0,0,0
1582562013039,2629759,0,0,0
1582562013139,2630272,0,0,0
1582562013239,2630516,0,0,0
1582562013339,2630481,0,0,0
1582562013439,2630449,0,0,0
1582562013540,2630252,0,0,0
1582562013639,2631462,0,0,0
1582562013750,2632398,0,0,0
1582562013850,2632673,0,0,0
1582562013950,2632265,0,0,0
1582562014051,2631759,0,0,0
1582562014151,2631662,0,0,0
1582562014251,2630959,0,0,0
1582562014351,2630359,0,0,0
1582562014451,2630407,0,0,0
1582562014551,2630347,0,0,0
1582562014651,2630730,0,0,0
1582562014751,2630536,0,0,0
1582562014851,2630046,0,0,0
1582562014950,2628946,0,0,0
1582562015041,2631765,0,0,0
1582562015141,2635856,0,0,0
1582562015241,2638529,0,0,0
1582562015341,2639589,0,0,0
1582562015482,2642197,0,0,0
1582562015549,2646015,0,0,0
1582562015648,2649359,0,0,0
1582562015745,2652446,0,0,0
1582562015853,2655035,0,0,0
1582562015942,2657632,0,0,0
1582562016043,2660779,0,0,0
1582562016144,2662842,0,0,0
1582562016244,2664562,0,0,0
1582562016344,2665998,0,0,0
1582562016447,2667064,0,0,0
1582562016546,2667340,0,0,0
1582562016645,2668303,0,0,0
1582562016745,2669396,0,0,0
1582562016845,2670237,0,0,0
1582562016944,2670307,0,0,0
1582562017045,2669696,0,0,0
1582562017145,2668350,0,0,0
1582562017245,2667821,0,0,0
1582562017345,2667400,0,0,0
1582562017445,2666610,0,0,0
1582562017545,2665526,0,0,0
1582562017647,2662922,0,0,0
1582562017747,2660471,0,0,0
1582562017847,2658276,0,0,0
1582562017945,2659224,0,0,0
1582562018046,2660381,0,0,0
1582562018146,2661579,0,0,0
1582562018246,2663118,0,0,0
1582562018345,2664535,0,0,0
1582562018446,2664726,0,0,0
1582562018546,2664148,0,0,0
1582562018646,2663819,0,0,0
1582562018746,2663386,0,0,0
1582562018847,2662993,0,0,0
1582562018945,2662504,0,0,0
1582562019046,2661974,0,0,0
1582562019147,2661961,0,0,0
1582562019246,2661739,0,0,0
1582562019346,2659886,0,0,0
1582562019446,2658449,0,0,0
1582562019546,2657633,0,0,0
1582562019647,2658834,0,0,0
1582562019746,2660066,0,0,0
1582562019847,2660078,0,0,0
1582562019946,2660679,0,0,0
1582562020047,2661612,0,0,0
1582562020147,2660956,0,0,0
1582562020292,2659880,0,0,0
1582562020348,2659002,0,0,0
1582562020447,2658934,0,0,0
1582562020546,2659509,0,0,0
1582562020646,2659640,0,0,0
1582562020746,2658751,0,0,0
1582562020846,2657410,0,0,0
1582562020946,2655022,0,0,0
1582562021046,2653974,0,0,0
1582562021146,2652630,0,0,0
1582562021246,2650848,0,0,0
1582562021346,2648993,0,0,0
1582562021446,2647302,0,0,0
1582562021546,2647841,0,0,0
1582562021646,2649034,0,0,0
1582562021746,2648837,0,0,0
1582562021846,2648024,0,0,0
1582562021946,2647205,0,0,0
1582562022046,2646293,0,0,0
1582562022146,2645350,0,0,0
1582562022246,2644662,0,0,0
1582562022347,2643612,0,0,0
1582562022447,2642991,0,0,0
1582562022547,2641275,0,0,0
1582562022647,2640381,0,0,0
1582562022747,2639666,0,0,0
1582562022847,2639237,0,0,0
1582562022946,2638915,0,0,0
1582562023047,2638080,0,5,0
1582562023147,2637763,0,5,0
1582562023247,2636838,0,5,0
1582562023347,2635925,0,5,0
1582562023447,2634608,0,5,0
1582562023558,2633474,0,5,0
1582562023648,2632565,0,5,0
1582562023758,2632653,0,5,0
1582562023858,2633086,0,5,0
1582562023957,2633581,0,5,0
1582562024059,2633478,0,5,0
1582562024158,2632965,0,5,0
1582562024258,2633004,0,5,0
1582562024358,2633526,0,5,0
1582562024458,2633783,0,5,0
1582562024558,2634362,0,5,0
1582562024658,2634603,0,5,0
1582562024759,2635457,0,5,0
1582562024858,2636871,0,5,0
1582562024958,2636474,0,5,0
1582562025058,2634552,0,5,0
1582562025159,2632788,0,5,0
1582562025259,2632919,0,5,0
1582562025359,2633408,0,5,0
1582562025459,2634833,0,5,0
1582562025559,2636824,0,5,0
1582562025659,2638300,0,5,0
1582562025749,2638039,0,5,0
1582562025851,2638213,0,5,0
1582562025950,2636838,0,5,0
1582562026051,2637009,0,5,0
1582562026150,2636585,0,5,0
1582562026250,2636751,0,5,0
1582562026350,2637882,0,5,0
1582562026450,2638147,0,5,0
1582562026550,2637521,0,5,0
1582562026650,2636667,0,5,0
1582562026750,2635407,0,5,0
1582562026850,2634130,0,5,0
1582562026949,2634062,0,5,0
1582562027050,2634421,0,5,0
1582562027150,2634208,0,5,0
1582562027250,2632529,0,5,0
1582562027350,2631335,0,5,0
1582562027450,2631064,0,5,0
1582562027550,2631627,0,5,0
1582562027650,2632446,0,5,0
1582562027750,2633827,0,5,0
1582562027850,2633901,0,5,0
1582562027950,2633145,0,5,0
1582562028050,2632602,0,5,0
1582562028150,2632208,0,5,0
1582562028250,2632497,0,5,0
1582562028350,2633390,0,5,0
1582562028451,2634478,0,5,0
1582562028561,2634947,0,5,0
1582562028651,2636160,0,5,0
1582562028761,2639031,0,5,0
1582562028861,2642512,0,5,0
1582562028960,2645063,0,5,0
1582562029061,2647453,0,5,0
1582562029162,2648643,0,5,0
1582562029261,2649423,0,5,0
1582562029361,2649861,0,5,0
1582562029462,2650477,0,5,0
1582562029562,2651159,0,5,0
1582562029662,2652045,0,5,0
1582562029762,2653083,0,5,0
1582562029862,2654028,0,5,0
1582562029961,2654506,0,5,0
1582562030063,2654449,0,5,0
1582562030162,2654335,0,5,0
1582562030263,2654376,0,5,0
1582562030362,2654339,0,5,0
1582562030462,2654273,0,5,0
1582562030562,2653772,0,5,0
1582562030662,2652852,0,5,0
1582562030752,2651875,0,5,0
1582562030852,2650932,0,5,0
1582562030952,2650678,0,5,0
1582562031052,2649721,0,5,0
1582562031152,2648949,0,5,0
1582562031252,2648911,0,5,0
1582562031353,2648105,0,5,0
1582562031453,2646393,0,5,0
1582562031553,2645604,0,5,0
1582562031653,2645317,0,5,0
1582562031753,2645611,0,5,0
1582562031853,2646684,0,5,0
1582562031953,2647672,0,5,0
1582562032053,2648261,0,5,0
1582562032153,2647267,0,5,0
1582562032254,2645639,0,5,0
1582562032364,2643765,0,5,0
1582562032464,2642616,0,5,0
1582562032564,2641520,0,5,0
1582562032664,2641361,0,5,0
1582562032754,2641668,0,5,0
1582562032854,2640300,0,5,0
1582562032963,2639371,0,5,0
1582562033064,2638601,0,5,0
1582562033164,2638155,0,5,0
1582562033264,2637727,0,5,0
1582562033364,2637626,0,5,0
1582562033464,2637353,0,5,0
1582562033564,2637165,0,5,0
1582562033664,2635482,0,5,0
1582562033765,2633445,0,5,0
1582562033867,2632911,0,5,0
1582562033964,2632490,0,5,0
1582562034065,2632493,0,5,0
1582562034166,2632629,0,5,0
1582562034265,2632606,0,5,0
1582562034365,2632366,0,5,0
1582562034467,2630654,0,5,0
1582562034555,2629118,0,5,0
1582562034666,2628263,0,5,0
1582562034766,2627401,0,5,0
1582562034865,2627017,0,5,0
1582562034965,2627183,0,5,0
1582562035065,2626599,0,5,0
1582562035165,2626196,0,5,0
1582562035265,2625089,0,5,0
1582562035366,2624182,0,5,0
1582562035466,2624575,0,5,0
1582562035566,2625095,0,5,0
1582562035666,2625249,0,5,0
1582562035756,2625709,0,5,0
1582562035856,2626258,0,5,0
1582562035955,2626495,0,5,0
1582562036056,2626329,0,5,0
1582562036156,2624753,0,5,0
1582562036256,2623934,0,5,0
1582562036356,2623781,0,5,0
1582562036456,2623848,0,5,0
1582562036556,2624005,0,5,0
1582562036656,2624897,0,5,0
1582562036756,2626416,0,5,0
1582562036856,2626956,0,5,0
1582562036956,2626687,0,5,0
1582562037070,2626071,0,5,0
1582562037158,2624602,0,5,0
1582562037255,2623725,0,5,0
1582562037356,2623360,0,5,0
1582562037456,2624118,0,5,0
1582562037556,2625222,0,5,0
1582562037657,2625359,0,5,0
1582562037756,2624038,0,5,0
1582562037858,2622968,0,5,0
1582562037958,2621795,0,5,0
1582562038057,2621003,0,5,0
1582562038157,2620530,0,5,0
1582562038256,2620484,0,5,0
1582562038357,2620403,0,5,0
1582562038457,2618327,0,5,0
1582562038557,2616283,0,5,0
1582562038657,2615204,0,5,0
1582562038757,2614356,0,5,0
1582562038857,2613770,0,5,0
1582562038956,2613654,0,5,0
1582562039058,2613542,0,5,0
1582562039158,2613631,0,5,0
1582562039258,2612300,0,5,0
1582562039358,2610646,0,5,0
1582562039459,2610063,0,5,0
1582562039558,2610060,0,5,0
1582562039658,2609509,0,5,0
1582562039758,2609304,0,5,0
1582562039858,2609428,0,5,0
1582562039957,2609545,0,5,0
1582562040058,2608890,0,5,0
1582562040158,2607199,0,5,0
1582562040259,2606189,0,5,0
1582562040359,2605145,0,5,0
1582562040460,2604338,0,5,0
1582562040560,2603776,0,5,0
1582562040658,2603097,0,5,0
1582562040758,2602879,0,5,0
1582562040859,2601437,0,5,0
1582562040958,2599113,0,5,0
1582562041059,2597781,0,5,0
1582562041160,2596931,0,5,0
1582562041259,2596245,0,5,0
1582562041359,2595865,0,5,0
1582562041459,2595667,0,5,0
1582562041559,2595611,0,5,0
1582562041659,2595224,0,5,0
1582562041759,2593208,0,5,0
1582562041860,2591651,0,5,0
1582562041959,2590757,0,5,0
1582562042059,2589718,0,5,0
1582562042160,2589045,0,5,0
1582562042260,2588714,0,5,0
1582562042360,2588483,0,5,0
1582562042460,2588350,0,5,0
1582562042560,2586490,0,5,0
1582562042670,2584865,0,5,0
1582562042760,2583641,0,5,0
1582562042860,2582587,0,5,0
1582562042959,2581878,0,5,0
1582562043060,2581495,0,5,0
1582562043160,2581247,0,5,0
1582562043260,2581172,0,5,0
1582562043360,2579911,0,5,0
1582562043460,2578174,0,5,0
1582562043560,2577197,0,5,0
1582562043660,2576294,0,5,0
1582562043760,2575561,0,5,0
1582562043860,2575160,0,5,0
1582562043960,2574749,0,5,0
1582562044071,2574578,0,5,0
1582562044161,2573427,0,5,0
1582562044261,2571696,0,5,0
1582562044361,2570578,0,5,0
1582562044461,2569739,0,5,0
1582562044561,2569018,0,5,0
1582562044661,2568564,0,5,0
1582562044761,2568340,0,5,0
1582562044861,2567994,0,5,0
1582562044960,2567026,0,5,0
1582562045061,2565443,0,5,0
1582562045161,2564333,0,5,0
1582562045263,2563460,0,5,0
1582562045361,2562745,0,5,0
1582562045461,2562303,0,5,0
1582562045562,2561959,0,5,0
1582562045661,2561639,0,5,0
1582562045762,2561200,0,5,0
1582562045862,2559838,0,5,0
1582562045961,2558566,0,5,0
1582562046062,2557820,0,5,0
1582562046162,2556953,0,5,0
1582562046262,2556351,0,5,0
1582562046362,2555890,0,5,0
1582562046462,2555726,0,5,0
1582562046562,2555082,0,5,0
1582562046662,2553677,0,5,0
1582562046762,2552609,0,5,0
1582562046862,2551990,0,5,0
1582562046962,2551173,0,5,0
1582562047062,2550606,0,5,0
1582562047163,2550387,0,5,0
1582562047263,2549991,0,5,0
1582562047363,2549619,0,5,0
1582562047463,2548351,0,5,0
1582562047563,2547223,0,5,0
1582562047663,2546546,0,5,0
1582562047763,2545884,0,5,0
1582562047863,2545273,0,5,0
1582562047963,2545102,0,5,0
1582562048063,2544793,0,5,0
1582562048163,2544579,0,5,0
1582562048264,2543585,0,5,0
1582562048363,2542677,0,5,0
1582562048464,2542155,0,5,0
1582562048564,2541637,0,5,0
1582562048664,2541287,0,5,0
1582562048764,2541063,0,5,0
1582562048864,2540951,0,5,0
1582562048963,2541118,0,5,0
1582562049064,2541286,0,5,0
1582562049175,2540712,0,5,0
1582562049264,2540153,0,5,0
1582562049364,2539698,0,5,0
1582562049465,2539466,0,5,0
1582562049564,2539405,0,5,0
1582562049664,2539415,0,5,0
1582562049764,2539514,0,5,0
1582562049876,2538991,0,5,0
1582562049974,2538555,0,5,0
1582562050075,2538004,0,5,0
1582562050175,2537658,0,5,0
1582562050275,2537397,0,5,0
1582562050375,2537195,0,5,0
1582562050476,2537415,0,5,0
1582562050575,2538046,0,5,0
1582562050675,2538031,0,5,0
1582562050765,2537687,0,5,0
1582562050865,2537138,0,5,0
1582562050964,2536547,0,5,0
1582562051065,2536588,0,5,0
1582562051165,2537023,0,5,0
1582562051265,2540463,0,5,0
1582562051365,2547003,0,5,0
1582562051465,2554506,0,5,0
1582562051566,2560317,0,5,0
1582562051665,2564662,0,5,0
1582562051766,2569399,0,5,0
1582562051866,2574295,0,5,0
1582562051965,2580293,0,5,0
1582562052066,2585668,0,5,0
1582562052166,2588548,0,5,0
1582562052266,2592254,0,5,0
1582562052366,2596176,0,5,0
1582562052476,2598861,0,5,0
1582562052576,2601310,0,5,0
1582562052676,2601916,0,5,0
1582562052776,2602719,0,5,0
1582562052877,2603697,0,5,0
1582562052976,2604265,0,5,0
1582562053077,2604564,0,5,0
1582562053177,2605169,0,5,0
1582562053277,2606019,0,5,0
1582562053377,2606992,0,5,0
1582562053478,2607516,0,5,0
1582562053577,2607428,0,5,0
1582562053677,2607527,0,5,0
1582562053777,2608235,0,5,0
1582562053877,2608617,0,5,0
1582562053977,2608518,0,5,0
1582562054078,2608056,0,5,0
1582562054178,2608028,0,5,0
1582562054278,2607343,0,5,0
1582562054378,2606883,0,5,0
1582562054478,2606659,0,5,0
1582562054578,2606995,0,5,0
1582562054679,2607419,0,5,0
1582562054778,2607256,0,5,0
1582562054878,2607312,0,5,0
1582562054977,2607643,0,5,0
1582562055078,2607357,0,5,0
1582562055178,2605741,0,5,0
1582562055278,2605400,0,5,0
1582562055378,2607297,0,5,0
1582562055478,2610080,0,5,0
1582562055578,2611627,0,5,0
1582562055678,2614456,0,5,0
1582562055768,2619270,0,5,0
1582562055868,2622739,0,5,0
1582562055968,2624186,0,5,0
1582562056068,2624971,0,5,0
1582562056168,2625205,0,5,0
1582562056268,2625495,0,5,0
1582562056369,2627781,0,5,0
1582562056469,2630085,0,5,0
1582562056569,2632237,0,5,0
1582562056669,2634403,0,5,0
1582562056769,2636413,0,5,0
1582562056869,2638163,0,5,0
1582562056968,2639332,0,5,0
1582562057069,2639826,0,5,0
1582562057169,2639974,0,5,0
1582562057269,2640147,0,5,0
1582562057369,2639993,0,5,0
1582562057469,2639757,0,5,0
1582562057570,2640231,0,5,0
1582562057670,2641312,0,5,0
1582562057770,2643228,0,5,0
1582562057870,2643790,0,5,0
1582562057969,2644526,0,5,0
1582562058080,2645123,0,5,0
1582562058180,2645087,0,5,0
1582562058280,2646551,0,5,0
1582562058380,2647281,0,5,0
1582562058481,2646740,0,5,0
1582562058580,2645650,0,5,0
1582562058680,2645163,0,5,0
1582562058781,2644794,0,5,0
1582562058881,2644608,0,5,0
1582562058980,2644583,0,5,0
1582562059081,2644969,0,5,0
1582562059181,2645264,0,5,0
1582562059281,2645184,0,5,0
1582562059381,2644997,0,5,0
1582562059481,2645104,0,5,0
1582562059581,2645148,0,5,0
1582562059681,2645424,0,5,0
1582562059781,2645752,0,5,0
1582562059882,2646242,0,5,0
1582562059981,2646728,0,5,0
1582562060082,2646830,0,5,0
1582562060182,2646633,0,5,0
1582562060282,2646715,0,5,0
1582562060382,2646778,0,5,0
1582562060482,2646957,0,5,0
1582562060582,2647051,0,5,0
1582562060682,2647425,0,5,0
1582562060772,2647776,0,5,0
1582562060872,2647570,0,5,0
1582562060971,2647362,0,5,0
1582562061072,2647517,0,5,0
1582562061172,2647547,0,5,0
1582562061272,2647938,0,5,0
1582562061372,2648343,0,5,0
1582562061472,2648891,0,5,0
1582562061572,2648872,0,5,0
1582562061672,2648540,0,5,0
1582562061772,2648545,0,5,0
1582562061873,2648860,0,5,0
1582562061972,2648795,0,5,0
1582562062073,2649251,0,5,0
1582562062173,2649677,0,5,0
1582562062273,2649816,0,5,0
1582562062373,2649256,0,5,0
1582562062483,2649155,0,5,0
1582562062583,2649090,0,5,0
1582562062683,2648905,0,5,0
1582562062773,2649161,0,5,0
1582562062873,2649441,0,5,0
1582562062972,2649637,0,5,0
1582562063075,2649492,0,5,0
1582562063175,2648677,0,5,0
1582562063275,2648255,0,5,0
1582562063375,2648103,0,5,0
1582562063475,2648251,0,5,0
1582562063575,2648356,0,5,0
1582562063685,2648677,0,5,0
1582562063784,2648180,0,5,0
1582562063886,2647732,0,5,0
1582562063984,2648148,0,5,0
1582562064084,2649666,0,5,0
1582562064185,2651362,0,5,0
1582562064284,2651366,0,5,0
1582562064374,2652351,0,5,0
1582562064485,2652613,0,5,0
1582562064584,2652693,0,5,0
1582562064686,2652989,0,5,0
1582562064785,2653235,0,5,0
1582562064885,2652331,0,5,0
1582562064984,2652314,0,5,0
1582562065085,2652779,0,5,0
1582562065185,2653740,0,5,0
1582562065285,2653692,0,5,0
1582562065385,2653518,0,5,0
1582562065485,2653625,0,5,0
1582562065585,2653820,0,5,0
1582562065685,2654019,0,5,0
1582562065775,2654309,0,5,0
1582562065875,2654698,0,5,0
1582562065975,2654306,0,5,0
1582562066075,2653696,0,5,0
1582562066175,2653205,0,5,0
1582562066276,2653049,0,5,0
1582562066375,2652997,0,5,0
1582562066476,2652995,0,5,0
1582562066576,2653244,0,5,0
1582562066676,2653271,0,5,0
1582562066776,2652828,0,5,0
1582562066876,2652301,0,5,0
1582562066975,2651784,0,5,0
1582562067086,2651684,0,5,0
1582562067186,2651708,0,5,0
1582562067286,2651940,0,5,0
1582562067386,2652161,0,5,0
1582562067487,2652540,0,5,0
1582562067586,2651966,0,5,0
1582562067686,2651281,0,5,0
1582562067786,2651121,0,5,0
1582562067887,2651376,0,5,0
1582562067986,2652044,0,5,0
1582562068087,2654192,0,5,0
1582562068187,2655555,0,5,0
1582562068287,2655788,0,5,0
1582562068387,2655146,0,5,0
1582562068487,2654563,0,5,0
1582562068587,2654697,0,5,0
1582562068687,2656099,0,5,0
1582562068787,2656950,0,5,0
1582562068887,2657196,0,5,0
1582562068987,2657049,0,5,0
1582562069087,2656804,0,5,0
1582562069188,2655643,0,5,0
1582562069288,2654862,0,5,0
1582562069388,2654491,0,5,0
1582562069488,2654118,0,5,0
1582562069588,2653721,0,5,0
1582562069688,2653747,0,5,0
1582562069788,2653344,0,5,0
1582562069888,2651770,0,5,0
1582562069987,2650580,0,5,0
1582562070088,2650014,0,5,0
1582562070178,2649380,0,5,0
1582562070278,2648980,0,5,0
1582562070378,2649026,0,5,0
1582562070478,2649421,0,5,0
1582562070578,2648583,0,5,0
1582562070678,2647254,0,5,0
1582562070778,2646435,0,5,0
1582562070878,2645733,0,5,0
1582562070978,2645419,0,5,0
1582562071079,2645268,0,5,0
1582562071179,2645188,0,5,0
1582562071279,2643538,0,5,0
1582562071379,2642228,0,5,0
1582562071479,2641601,0,5,0
1582562071579,2640864,0,5,0
1582562071679,2640552,0,5,0
1582562071779,2640690,0,5,0
1582562071879,2640638,0,5,0
1582562071979,2639135,0,5,0
1582562072079,2638076,0,5,0
1582562072179,2637288,0,5,0
1582562072290,2636734,0,5,0
1582562072379,2636380,0,5,0
1582562072490,2636692,0,5,0
1582562072590,2637004,0,5,0
1582562072690,2636414,0,5,0
1582562072790,2634629,0,5,0
1582562072890,2633707,0,5,0
1582562072989,2633081,0,5,0
1582562073090,2632551,0,5,0
1582562073190,2632445,0,5,0
1582562073290,2632623,0,5,0
1582562073390,2633429,0,5,0
1582562073490,2633923,0,5,0
1582562073591,2633020,0,5,0
1582562073690,2633507,0,5,0
1582562073791,2633796,0,5,0
1582562073891,2632946,0,5,0
1582562073990,2632610,0,5,0
1582562074091,2632750,0,5,0
1582562074191,2633130,0,5,0
1582562074291,2633316,0,5,0
1582562074391,2632355,0,5,0
1582562074491,2631193,0,5,0
1582562074591,2630414,0,5,0
1582562074692,2629882,0,5,0
1582562074792,2629484,0,5,0
1582562074891,2629495,0,5,0
1582562074981,2629786,0,5,0
1582562075081,2630222,0,5,0
1582562075181,2629969,0,5,0
1582562075281,2628416,0,5,0
1582562075381,2627675,0,5,0
1582562075482,2627300,0,5,0
1582562075582,2627179,0,5,0
1582562075682,2627368,0,5,0
1582562075782,2627727,0,5,0
1582562075882,2628286,0,5,0
1582562075981,2628676,0,5,0
1582562076082,2627432,0,5,0
1582562076182,2626353,0,5,0
1582562076282,2625852,0,5,0
1582562076382,2625346,0,5,0
1582562076482,2625233,0,5,0
1582562076582,2625276,0,5,0
1582562076682,2625499,0,5,0
1582562076782,2625800,0,5,0
1582562076883,2624454,0,5,0
1582562076982,2623188,0,5,0
1582562077083,2622811,0,5,0
1582562077183,2622330,0,5,0
1582562077283,2621908,0,5,0
1582562077383,2621755,0,5,0
1582562077483,2621844,0,5,0
1582562077583,2621349,0,5,0
1582562077683,2619282,0,5,0
1582562077783,2618121,0,5,0
1582562077883,2617365,0,5,0
1582562077983,2616627,0,5,0
1582562078083,2616319,0,5,0
1582562078183,2616415,0,5,0
1582562078284,2616550,0,5,0
1582562078383,2616613,0,5,0
1582562078484,2614490,0,5,0
1582562078584,2613290,0,5,0
1582562078684,2612572,0,5,0
1582562078784,2611812,0,5,0
1582562078884,2611569,0,5,0
1582562078983,2611725,0,5,0
1582562079094,2611991,0,5,0
1582562079185,2612472,0,5,0
1582562079284,2611072,0,5,0
1582562079394,2609502,0,5,0
1582562079495,2608744,0,5,0
1582562079594,2608199,0,5,0
1582562079695,2607993,0,5,0
1582562079795,2608256,0,5,0
1582562079897,2608803,0,5,0
1582562079994,2609615,0,5,0
1582562080095,2609389,0,5,0
1582562080195,2607876,0,5,0
1582562080295,2607209,0,5,0
1582562080395,2607062,0,5,0
1582562080495,2606933,0,5,0
1582562080595,2607523,0,5,0
1582562080696,2608126,0,5,0
1582562080797,2608879,0,5,0
1582562080896,2608815,0,5,0
1582562080995,2607430,0,5,0
1582562081095,2606892,0,5,0
1582562081196,2606973,0,5,0
1582562081296,2606960,0,5,0
1582562081396,2607545,0,5,0
1582562081496,2608449,0,5,0
1582562081586,2609498,0,5,0
1582562081686,2610301,0,5,0
1582562081786,2609538,0,5,0
1582562081886,2608715,0,5,0
1582562081985,2608542,0,5,0
1582562082086,2608517,0,5,0
1582562082186,2608731,0,5,0
1582562082286,2609502,0,5,0
1582562082386,2610291,0,5,0
1582562082486,2611240,0,5,0
1582562082586,2612396,0,5,0
1582562082686,2611756,0,5,0
1582562082786,2611003,0,5,0
1582562082886,2610812,0,5,0
1582562082986,2610823,0,5,0
1582562083087,2611195,0,5,0
1582562083186,2611644,0,5,0
1582562083287,2612475,0,5,0
1582562083387,2613421,0,5,0
1582562083487,2614444,0,5,0
1582562083587,2613932,0,5,0
1582562083689,2613242,0,5,0
1582562083797,2613155,0,5,0
1582562083897,2613321,0,5,0
1582562083997,2613454,0,5,0
1582562084098,2614060,0,5,0
1582562084198,2614820,0,5,0
1582562084298,2615602,0,5,0
1582562084398,2616265,0,5,0
1582562084498,2615357,0,5,0
1582562084598,2614694,0,5,0
1582562084699,2614598,0,5,0
1582562084798,2614879,0,5,0
1582562084898,2614813,0,5,0
1582562084997,2615473,0,5,0
1582562085098,2616221,0,5,0
1582562085198,2617124,0,5,0
1582562085298,2617539,0,5,0
1582562085399,2616968,0,5,0
1582562085499,2618850,0,5,0
1582562085598,2621130,0,5,0
1582562085698,2621719,0,5,0
1582562085788,2621751,0,5,0
1582562085889,2623193,0,5,0
1582562085988,2623075,0,5,0
1582562086089,2622895,0,5,0
1582562086188,2623572,0,5,0
1582562086288,2622034,0,5,0
1582562086389,2622810,0,5,0
1582562086489,2626303,0,5,0
1582562086589,2627197,0,5,0
1582562086689,2625220,0,5,0
1582562086789,2621740,0,5,0
1582562086890,2619457,0,5,0
1582562086989,2618390,0,5,0
1582562087089,2618512,0,5,0
1582562087189,2620529,0,5,0
1582562087289,2623557,0,5,0
1582562087389,2624922,0,5,0
1582562087490,2625353,0,5,0
1582562087640,2625800,0,5,0
1582562087692,2627468,0,5,0
1582562087790,2629766,0,5,0
1582562087889,2632396,0,5,0
1582562087988,2630409,0,5,0
1582562088089,2628444,0,5,0
1582562088189,2625281,0,5,0
1582562088296,2625518,0,5,0
1582562088391,2624927,0,5,0
1582562088491,2624437,0,5,0
1582562088591,2624570,0,5,0
1582562088691,2626463,0,5,0
1582562088790,2626962,0,5,0
1582562088891,2626066,0,5,0
1582562088992,2624592,0,5,0
1582562089093,2623795,0,5,0
1582562089191,2624255,0,5,0
1582562089291,2624796,0,5,0
1582562089391,2624984,0,5,0
1582562089491,2625019,0,5,0
1582562089591,2624120,0,5,0
1582562089691,2624655,0,5,0
1582562089793,2623953,0,5,0
1582562089893,2622783,0,5,0
1582562089991,2621813,0,5,0
1582562090092,2621458,0,5,0
1582562090192,2620665,0,5,0
1582562090292,2620143,0,5,0
1582562090392,2620090,0,5,0
1582562090492,2619816,0,5,0
1582562090592,2619279,0,5,0
1582562090692,2617936,0,5,0
1582562090792,2617291,0,5,0
1582562090892,2617161,0,5,0
1582562090991,2617101,0,5,0
1582562091092,2617297,0,5,0
1582562091193,2617836,0,5,0
1582562091292,2618488,0,5,0
1582562091392,2619260,0,5,0
1582562091493,2619593,0,5,0
1582562091592,2619203,0,5,0
1582562091693,2619212,0,5,0
1582562091793,2619423,0,5,0
1582562091893,2619654,0,5,0
1582562091992,2620163,0,5,0
1582562092093,2620881,0,5,0
1582562092193,2621515,0,5,0
1582562092293,2622327,0,5,0
1582562092428,2622263,0,5,0
1582562092494,2622270,0,5,0
1582562092595,2622334,0,5,0
1582562092694,2622615,0,5,0
1582562092795,2622882,0,5,0
1582562092895,2623425,0,5,0
1582562092993,2623959,0,5,0
1582562093095,2624944,0,5,0
1582562093195,2626062,0,5,0
1582562093294,2626722,0,5,0
1582562093393,2627205,0,5,0
1582562093494,2627817,0,5,0
1582562093594,2628441,0,5,0
1582562093694,2629120,0,5,0
1582562093794,2629819,0,5,0
1582562093904,2630684,0,5,0
1582562093993,2631508,0,5,0
1582562094095,2632666,0,5,0
1582562094194,2633251,0,5,0
1582562094294,2633174,0,5,0
1582562094405,2633264,0,5,0
1582562094505,2633487,0,5,0
1582562094604,2633870,0,5,0
1582562094706,2634137,0,5,0
1582562094805,2634786,0,5,0
1582562094905,2635287,0,5,0
1582562095004,2635868,0,5,0
1582562095105,2635736,0,5,0
1582562095205,2635338,0,5,0
1582562095305,2635348,0,5,0
1582562095405,2635445,0,5,0
1582562095505,2635513,0,5,0
1582562095605,2635306,0,5,0
1582562095705,2635836,0,5,0
1582562095805,2636142,0,5,0
1582562095905,2636203,0,5,0
1582562096005,2635406,0,5,0
1582562096107,2635099,0,5,0
1582562096206,2634798,0,5,0
1582562096306,2634560,0,5,0
1582562096406,2634713,0,5,0
1582562096506,2634959,0,5,0
1582562096606,2635288,0,5,0
1582562096706,2635653,0,5,0
1582562096806,2635834,0,5,0
1582562096906,2634854,0,5,0
1582562097005,2634111,0,5,0
1582562097106,2633717,0,5,0
1582562097206,2633193,0,5,0
1582562097306,2632965,0,5,0
1582562097406,2633323,0,5,0
1582562097507,2633592,0,5,0
1582562097606,2633932,0,5,0
1582562097707,2634031,0,5,0
1582562097807,2633218,0,5,0
1582562097907,2632470,0,5,0
1582562098011,2632002,0,5,0
1582562098097,2631555,0,5,0
1582562098207,2631328,0,5,0
1582562098297,2631470,0,5,0
1582562098407,2631531,0,5,0
1582562098507,2631881,0,5,0
1582562098607,2630993,0,5,0
1582562098707,2630097,0,5,0
1582562098807,2629621,0,5,0
1582562098907,2629373,0,5,0
1582562099007,2629345,0,5,0
1582562099108,2629592,0,5,0
1582562099208,2631195,0,5,0
1582562099308,2634063,0,5,0
1582562099408,2635282,0,5,0
1582562099508,2634330,0,5,0
1582562099608,2633143,0,5,0
1582562099715,2632210,0,5,0
1582562099800,2631711,0,5,0
1582562099901,2631376,0,5,0
1582562099999,2632375,0,5,0
1582562100100,2633073,0,5,0
1582562100199,2633574,0,5,0
1582562100299,2633252,0,5,0
1582562100399,2632183,0,5,0
1582562100499,2631404,0,5,0
1582562100599,2630926,0,5,0
1582562100699,2630518,0,5,0
1582562100798,2630321,0,5,0
1582562100898,2630373,0,5,0
1582562100998,2630653,0,5,0
1582562101099,2630911,0,5,0
1582562101199,2630000,0,5,0
1582562101299,2629439,0,5,0
1582562101399,2629187,0,5,0
1582562101499,2628967,0,5,0
1582562101599,2628814,0,5,0
1582562101699,2629183,0,5,0
1582562101799,2629381,0,5,0
1582562101899,2629951,0,5,0
1582562101999,2629126,0,5,0
1582562102099,2628485,0,5,0
1582562102199,2627999,0,5,0
1582562102310,2627608,0,5,0
1582562102410,2627613,0,5,0
1582562102510,2627873,0,5,0
1582562102610,2628147,0,5,0
1582562102710,2628544,0,5,0
1582562102810,2628488,0,5,0
1582562102910,2627353,0,5,0
1582562103009,2626621,0,5,0
1582562103110,2626211,0,5,0
1582562103210,2625973,0,5,0
1582562103310,2625876,0,5,0
1582562103410,2626094,0,5,0
1582562103511,2626399,0,5,0
1582562103610,2626808,0,5,0
1582562103711,2626944,0,5,0
1582562103811,2625719,0,5,0
1582562103911,2625065,0,5,0
1582562104010,2624686,0,5,0
1582562104111,2624356,0,5,0
1582562104211,2624250,0,5,0
1582562104311,2624363,0,5,0
1582562104411,2624703,0,5,0
1582562104511,2625258,0,5,0
1582562104611,2624632,0,5,0
1582562104713,2623614,0,5,0
1582562104812,2623210,0,5,0
1582562104911,2622868,0,5,0
1582562105011,2622802,0,5,0
1582562105111,2623107,0,5,0
1582562105201,2623473,0,5,0
1582562105301,2623923,0,5,0
1582562105401,2624407,0,5,0
1582562105502,2623640,0,5,0
1582562105602,2622807,0,5,0
1582562105702,2622401,0,5,0
1582562105802,2622202,0,5,0
1582562105902,2622301,0,5,0
1582562106001,2622583,0,5,0
1582562106102,2623158,0,5,0
1582562106202,2623743,0,5,0
1582562106302,2624314,0,5,0
1582562106402,2624147,0,5,0
1582562106503,2623299,0,5,0
1582562106602,2622814,0,5,0
1582562106702,2622712,0,5,0
1582562106802,2622658,0,5,0
1582562106902,2623051,0,5,0
1582562107002,2623377,0,5,0
1582562107103,2623917,0,5,0
1582562107203,2624449,0,5,0
1582562107313,2625062,0,5,0
1582562107413,2624252,0,5,0
1582562107503,2623777,0,5,0
1582562107603,2623550,0,5,0
1582562107703,2623437,0,5,0
1582562107803,2623562,0,5,0
1582562107903,2623808,0,5,0
1582562108003,2624324,0,5,0
1582562108104,2624781,0,5,0
1582562108204,2625351,0,5,0
1582562108304,2624582,0,5,0
1582562108403,2624020,0,5,0
1582562108504,2623485,0,5,0
1582562108604,2623398,0,5,0
1582562108704,2623593,0,5,0
1582562108804,2623966,0,5,0
1582562108904,2624280,0,5,0
1582562109003,2624740,0,5,0
1582562109104,2625576,0,5,0
1582562109205,2625522,0,5,0
1582562109305,2624499,0,5,0
1582562109404,2623849,0,5,0
1582562109505,2623504,0,5,0
1582562109604,2623457,0,5,0
1582562109705,2623445,0,5,0
1582562109805,2624376,0,5,0
1582562109905,2626327,0,5,0
1582562110004,2626821,0,5,0
1582562110115,2627813,0,5,0
1582562110215,2628223,0,5,0
1582562110315,2628423,0,5,0
1582562110415,2628501,0,5,0
1582562110515,2627822,0,5,0
1582562110615,2628637,0,5,0
1582562110705,2629828,0,5,0
1582562110805,2630951,0,5,0
1582562110905,2631645,0,5,0
1582562111005,2632012,0,5,0
1582562111105,2632621,0,5,0
1582562111205,2633796,0,5,0
1582562111305,2634370,0,5,0
1582562111406,2634603,0,5,0
1582562111506,2634710,0,5,0
1582562111606,2635089,0,5,0
1582562111706,2635536,0,5,0
1582562111806,2635378,0,5,0
1582562111906,2634086,0,5,0
1582562112005,2632897,0,5,0
1582562112106,2632241,0,5,0
1582562112206,2631596,0,5,0
1582562112306,2631379,0,5,0
1582562112406,2633323,0,5,0
1582562112517,2634752,0,5,0
1582562112606,2634150,0,5,0
1582562112717,2632585,0,5,0
1582562112817,2630783,0,5,0
1582562112917,2629924,0,5,0
1582562113016,2629532,0,5,0
1582562113117,2630192,0,5,0
1582562113217,2631058,0,5,0
1582562113317,2631603,0,5,0
1582562113417,2632206,0,5,0
1582562113517,2632638,0,5,0
1582562113617,2631702,0,5,0
1582562113717,2630989,0,5,0
1582562113817,2630646,0,5,0
1582562113917,2630301,0,5,0
1582562114017,2629827,0,5,0
1582562114119,2629900,0,5,0
1582562114218,2630143,0,5,0
1582562114318,2630484,0,5,0
1582562114418,2629691,0,5,0
1582562114518,2629149,0,5,0
1582562114618,2628990,0,5,0
1582562114719,2629036,0,5,0
1582562114818,2628983,0,5,0
1582562114918,2629380,0,5,0
1582562115017,2630116,0,5,0
1582562115118,2631196,0,5,0
1582562115218,2632418,0,5,0
1582562115319,2631673,0,5,0
1582562115418,2630276,0,5,0
1582562115519,2629957,0,5,0
1582562115618,2630052,0,5,0
1582562115709,2630352,0,5,0
1582562115808,2630847,0,5,0
1582562115909,2631273,0,5,0
1582562116008,2631588,0,5,0
1582562116109,2632125,0,5,0
1582562116209,2632689,0,5,0
1582562116309,2633220,0,5,0
1582562116410,2634229,0,5,0
1582562116509,2633632,0,5,0
1582562116609,2632817,0,5,0
1582562116709,2632181,0,5,0
1582562116809,2632374,0,5,0
1582562116909,2633055,0,5,0
1582562117008,2632517,0,5,0
1582562117109,2631721,0,5,0
1582562117209,2631188,0,5,0
1582562117309,2630798,0,5,0
1582562117420,2630875,0,5,0
1582562117520,2631122,0,5,0
1582562117620,2631420,0,5,0
1582562117720,2631923,0,5,0
1582562117820,2631331,0,5,0
1582562117920,2630067,0,5,0
1582562118019,2629356,0,5,0
1582562118120,2628816,0,5,0
1582562118220,2628453,0,5,0
1582562118320,2628362,0,5,0
1582562118420,2628245,0,5,0
1582562118521,2628596,0,5,0
1582562118620,2628594,0,5,0
1582562118721,2627224,0,5,0
1582562118821,2626108,0,5,0
1582562118921,2625573,0,5,0
1582562119020,2624984,0,5,0
1582562119121,2624915,0,5,0
1582562119221,2624927,0,5,0
1582562119321,2625058,0,5,0
1582562119421,2625343,0,5,0
1582562119521,2623978,0,5,0
1582562119621,2622868,0,5,0
1582562119721,2624483,0,5,0
1582562119821,2626527,0,5,0
1582562119922,2626191,0,5,0
1582562120021,2626950,0,5,0
1582562120122,2628260,0,5,0
1582562120222,2628357,0,5,0
1582562120322,2627374,0,5,0
1582562120422,2625440,0,5,0
1582562120522,2625054,0,5,0
1582562120622,2625698,0,5,0
1582562120712,2627976,0,5,0
1582562120812,2629926,0,5,0
1582562120912,2629774,0,5,0
1582562121011,2625773,0,5,0
1582562121112,2621733,0,5,0
1582562121212,2619097,0,5,0
1582562121312,2616919,0,5,0
1582562121412,2615570,0,5,0
1582562121512,2616214,0,5,0
1582562121612,2619162,0,5,0
1582562121712,2622326,0,5,0
1582562121812,2624723,0,5,0
1582562121912,2625231,0,5,0
1582562122053,2624700,0,5,0
1582562122117,2624929,0,5,0
1582562122213,2625569,0,5,0
1582562122312,2625239,0,5,0
1582562122416,2624899,0,5,0
1582562122512,2626443,0,5,0
1582562122616,2624716,0,5,0
1582562122714,2620893,0,5,0
1582562122815,2619354,0,5,0
1582562122914,2618722,0,5,0
1582562123013,2618633,0,5,0
1582562123114,2621490,0,5,0
1582562123214,2621308,0,5,0
1582562123314,2626575,0,5,0
1582562123414,2628914,0,5,0
1582562123513,2629641,0,5,0
1582562123614,2629720,0,5,0
1582562123713,2630189,0,5,0
1582562123813,2630448,0,5,0
1582562123913,2630203,0,5,0
1582562124014,2628950,0,5,0
1582562124115,2628221,0,5,0
1582562124216,2626462,0,5,0
1582562124316,2624884,0,5,0
1582562124417,2623055,0,5,0
1582562124515,2622659,0,5,0
1582562124615,2623780,0,5,0
1582562124715,2625514,0,5,0
1582562124815,2626548,0,5,0
1582562124915,2627782,0,5,0
1582562125014,2628675,0,5,0
1582562125115,2629309,0,5,0
1582562125215,2630116,0,5,0
1582562125315,2631764,0,5,0
1582562125415,2633304,0,5,0
1582562125515,2633244,0,5,0
1582562125616,2632565,0,5,0
1582562125716,2632120,0,5,0
1582562125815,2631850,0,5,0
1582562125916,2631863,0,5,0
1582562126016,2631968,0,5,0
1582562126116,2632944,0,5,0
1582562126216,2634386,0,5,0
1582562126316,2635463,0,5,0
1582562126416,2634991,0,5,0
1582562126516,2634556,0,5,0
1582562126616,2634501,0,5,0
1582562126716,2633882,0,5,0
1582562126816,2632523,0,5,0
1582562126916,2631160,0,5,0
1582562127016,2630535,0,5,0
1582562127116,2630757,0,5,0
1582562127216,2633305,0,5,0
1582562127316,2635228,0,5,0
1582562127416,2634882,0,5,0
1582562127516,2633970,0,5,0
1582562127617,2633208,0,5,0
1582562127717,2632265,0,5,0
1582562127817,2631848,0,5,0
1582562127917,2631657,0,5,0
1582562128016,2631674,0,5,0
1582562128117,2631709,0,5,0
1582562128218,2631349,0,5,0
1582562128318,2629631,0,5,0
1582562128419,2628736,0,5,0
1582562128519,2627883,0,5,0
1582562128619,2626788,0,5,0
1582562128719,2626187,0,5,0
1582562128819,2625846,0,5,0
1582562128919,2625731,0,5,0
1582562129018,2625755,0,5,0
1582562129118,2625116,0,5,0
1582562129218,2623853,0,5,0
1582562129318,2623140,0,5,0
1582562129428,2622540,0,5,0
1582562129528,2621903,0,5,0
1582562129628,2621828,0,5,0
1582562129728,2621718,0,5,0
1582562129828,2621896,0,5,0
1582562129918,2622085,0,5,0
1582562130028,2622005,0,5,0
1582562130128,2620787,0,5,0
1582562130228,2619873,0,5,0
1582562130318,2619238,0,5,0
1582562130418,2618559,0,5,0
1582562130518,2618271,0,5,0
1582562130618,2618061,0,5,0
1582562130719,2618149,0,5,0
1582562130818,2618312,0,5,0
1582562130918,2618297,0,5,0
1582562131018,2617295,0,5,0
1582562131119,2616362,0,5,0
1582562131219,2615475,0,5,0
1582562131319,2614769,0,5,0
1582562131419,2614477,0,5,0
1582562131519,2614260,0,5,0
1582562131619,2614300,0,5,0
1582562131719,2614550,0,5,0
1582562131819,2613597,0,5,0
1582562131919,2612264,0,5,0
1582562132019,2611367,0,5,0
1582562132119,2610747,0,5,0
1582562132220,2610365,0,5,0
1582562132330,2610211,0,5,0
1582562132430,2610224,0,5,0
1582562132530,2610294,0,5,0
1582562132630,2610226,0,5,0
1582562132730,2608651,0,5,0
1582562132830,2607492,0,5,0
1582562132930,2606549,0,5,0
1582562133029,2605818,0,5,0
1582562133130,2605273,0,5,0
1582562133230,2604766,0,5,0
1582562133331,2604660,0,5,0
1582562133431,2604712,0,5,0
1582562133530,2604129,0,5,0
1582562133631,2602267,0,5,0
1582562133731,2600993,0,5,0
1582562133831,2600071,0,5,0
1582562133931,2599375,0,5,0
1582562134031,2599132,0,5,0
1582562134131,2599171,0,5,0
1582562134231,2599323,0,5,0
1582562134331,2599631,0,5,0
1582562134431,2598390,0,5,0
1582562134531,2596980,0,5,0
1582562134631,2596347,0,5,0
1582562134731,2595696,0,5,0
1582562134821,2595768,0,5,0
1582562134921,2595860,0,5,0
1582562135021,2596508,0,5,0
1582562135121,2597019,0,5,0
1582562135221,2597670,0,5,0
1582562135321,2596743,0,5,0
1582562135422,2595716,0,5,0
1582562135522,2595334,0,5,0
1582562135622,2595159,0,5,0
1582562135722,2595295,0,5,0
1582562135823,2595816,0,5,0
1582562135926,2596428,0,5,0
1582562136022,2597795,0,5,0
1582562136123,2598617,0,5,0
1582562136223,2598502,0,5,0
1582562136323,2597688,0,5,0
1582562136423,2597303,0,5,0
1582562136523,2597396,0,5,0
1582562136623,2597560,0,5,0
1582562136723,2597960,0,5,0
1582562136823,2598612,0,5,0
1582562136923,2599543,0,5,0
1582562137022,2600263,0,5,0
1582562137123,2601038,0,5,0
1582562137223,2600539,0,5,0
1582562137333,2600331,0,5,0
1582562137438,2600366,0,5,0
1582562137523,2600667,0,5,0
1582562137623,2600937,0,5,0
1582562137723,2601617,0,5,0
1582562137823,2602224,0,5,0
1582562137925,2602976,0,5,0
1582562138023,2603541,0,5,0
1582562138124,2602959,0,5,0
1582562138224,2602580,0,5,0
1582562138324,2602213,0,5,0
1582562138424,2602417,0,5,0
1582562138524,2603409,0,5,0
1582562138624,2603827,0,5,0
1582562138724,2604052,0,5,0
1582562138824,2604982,0,5,0
1582562138924,2607425,0,5,0
1582562139023,2609505,0,5,0
1582562139124,2612065,0,5,0
1582562139227,2615669,0,5,0
1582562139335,2619581,0,5,0
1582562139435,2623400,0,5,0
1582562139535,2626920,0,5,0
1582562139635,2627262,0,5,0
1582562139735,2627315,0,5,0
1582562139835,2628370,0,5,0
1582562139936,2629715,0,5,0
1582562140034,2630973,0,5,0
1582562140135,2632478,0,5,0
1582562140235,2633819,0,5,0
1582562140335,2635319,0,5,0
1582562140435,2637052,0,5,0
1582562140535,2638596,0,5,0
1582562140635,2638989,0,5,0
1582562140725,2638132,0,5,0
1582562140825,2637268,0,5,0
1582562140925,2636733,0,5,0
1582562141025,2636067,0,5,0
1582562141125,2635756,0,5,0
1582562141225,2635590,0,5,0
1582562141325,2635673,0,5,0
1582562141426,2635518,0,5,0
1582562141526,2634245,0,5,0
1582562141626,2632983,0,5,0
1582562141726,2632239,0,5,0
1582562141826,2631463,0,5,0
1582562141926,2631165,0,5,0
1582562142025,2630824,0,5,0
1582562142126,2631157,0,5,0
1582562142226,2633576,0,5,0
1582562142326,2635924,0,5,0
1582562142426,2634738,0,5,0
1582562142526,2633789,0,5,0
1582562142626,2633599,0,5,0
1582562142726,2633871,0,5,0
1582562142826,2634473,0,5,0
1582562142926,2633965,0,5,0
1582562143026,2633664,0,5,0
1582562143127,2634199,0,5,0
1582562143227,2633747,0,5,0
1582562143327,2632564,0,5,0
1582562143427,2631762,0,5,0
1582562143537,2631025,0,5,0
1582562143637,2630387,0,5,0
1582562143737,2629821,0,5,0
1582562143838,2629676,0,5,0
1582562143938,2629488,0,5,0
1582562144037,2627921,0,5,0
1582562144139,2626186,0,5,0
1582562144238,2625190,0,5,0
1582562144338,2624889,0,5,0
1582562144438,2625083,0,5,0
1582562144538,2625263,0,5,0
1582562144638,2626064,0,5,0
1582562144739,2626636,0,5,0
1582562144838,2626336,0,5,0
1582562144938,2625130,0,5,0
1582562145037,2624081,0,5,0
1582562145138,2623654,0,5,0
1582562145240,2623362,0,5,0
1582562145338,2623458,0,5,0
1582562145439,2623583,0,5,0
1582562145539,2624057,0,5,0
1582562145639,2624851,0,5,0
1582562145729,2624192,0,5,0
1582562145828,2623651,0,5,0
1582562145929,2623594,0,5,0
1582562146028,2623849,0,5,0
1582562146129,2623953,0,5,0
1582562146229,2624354,0,5,0
1582562146329,2624627,0,5,0
1582562146429,2625075,0,5,0
1582562146529,2624470,0,5,0
1582562146629,2623621,0,5,0
1582562146729,2623202,0,5,0
1582562146829,2623020,0,5,0
1582562146929,2623490,0,5,0
1582562147029,2624045,0,5,0
1582562147129,2625690,0,5,0
1582562147229,2627116,0,5,0
1582562147329,2627961,0,5,0
1582562147430,2627689,0,5,0
1582562147530,2627680,0,5,0
1582562147630,2628134,0,5,0
1582562147730,2628434,0,5,0
1582562147830,2629866,0,5,0
1582562147930,2633000,0,5,0
1582562148029,2633749,0,5,0
1582562148130,2632437,0,5,0
1582562148230,2630377,0,5,0
1582562148330,2628242,0,5,0
1582562148441,2626550,0,5,0
1582562148530,2623800,0,5,0
1582562148640,2622261,0,5,0
1582562148741,2621601,0,5,0
1582562148841,2620771,0,5,0
1582562148941,2620795,0,5,0
1582562149040,2620984,0,5,0
1582562149141,2620427,0,5,0
1582562149241,2620740,0,5,0
1582562149341,2619758,0,5,0
1582562149442,2619754,0,5,0
1582562149541,2620274,0,5,0
1582562149641,2622640,0,5,0
1582562149741,2626591,0,5,0
1582562149841,2631968,0,5,0
1582562149952,2636117,0,5,0
1582562150031,2638613,0,5,0
1582562150131,2640223,0,5,0
1582562150233,2642276,0,5,0
1582562150331,2644123,0,5,0
1582562150431,2646314,0,5,0
1582562150532,2647847,0,5,0
1582562150633,2647657,0,5,0
1582562150733,2645633,0,5,0
1582562150834,2643551,0,5,0
1582562150933,2639872,0,5,0
1582562151032,2636504,0,5,0
1582562151132,2636429,0,5,0
1582562151235,2636387,0,5,0
1582562151334,2636309,0,5,0
1582562151433,2635978,0,5,0
1582562151533,2635978,0,5,0
1582562151633,2635897,0,5,0
1582562151733,2634541,0,5,0
1582562151833,2632437,0,5,0
1582562151933,2630984,0,5,0
1582562152032,2629561,0,5,0
1582562152134,2628526,0,5,0
1582562152235,2627697,0,5,0
1582562152335,2627045,0,5,0
1582562152434,2626569,0,5,0
1582562152533,2626366,0,5,0
1582562152634,2624582,0,5,0
1582562152734,2622970,0,5,0
1582562152834,2621875,0,5,0
1582562152934,2621213,0,5,0
1582562153033,2620629,0,5,0
1582562153134,2620799,0,5,0
1582562153234,2620941,0,5,0
1582562153334,2621411,0,5,0
1582562153434,2621690,0,5,0
1582562153534,2620177,0,5,0
1582562153635,2619350,0,5,0
1582562153735,2619118,0,5,0
1582562153835,2618804,0,5,0
1582562153936,2618959,0,5,0
1582562154036,2619359,0,5,0
1582562154136,2620079,0,5,0
1582562154235,2621036,0,5,0
1582562154335,2621934,0,5,0
1582562154435,2621534,0,5,0
1582562154535,2621002,0,5,0
1582562154635,2620967,0,5,0
1582562154752,2621246,0,5,0
1582562154836,2620669,0,5,0
1582562154935,2619793,0,5,0
1582562155034,2620254,0,5,0
1582562155137,2622170,0,5,0
1582562155236,2623469,0,5,0
1582562155337,2625122,0,5,0
1582562155437,2625372,0,5,0
1582562155536,2625173,0,5,0
1582562155635,2625806,0,5,0
1582562155735,2627937,0,5,0
1582562155835,2629993,0,5,0
1582562155935,2630996,0,5,0
1582562156034,2630755,0,5,0
1582562156136,2631018,0,5,0
1582562156236,2630105,0,5,0
1582562156336,2627156,0,5,0
1582562156436,2625064,0,5,0
1582562156536,2624078,0,5,0
1582562156636,2624301,0,5,0
1582562156736,2625773,0,5,0
1582562156836,2627060,0,5,0
1582562156936,2629022,0,5,0
1582562157035,2631156,0,5,0
1582562157136,2633979,0,5,0
1582562157250,2634591,0,5,0
1582562157343,2635259,0,5,0
1582562157436,2635981,0,5,0
1582562157539,2637165,0,5,0
1582562157636,2638684,0,5,0
1582562157736,2639388,0,5,0
1582562157836,2638846,0,5,0
1582562157938,2639083,0,5,0
1582562158037,2638116,0,5,0
1582562158140,2637019,0,5,0
1582562158239,2636829,0,5,0
1582562158338,2636496,0,5,0
1582562158436,2635211,0,5,0
1582562158540,2634773,0,5,0
1582562158638,2636036,0,5,0
1582562158737,2638014,0,5,0
1582562158838,2638522,0,5,0
1582562158938,2638221,0,5,0
1582562159037,2637506,0,5,0
1582562159138,2637652,0,5,0
1582562159238,2638159,0,5,0
1582562159338,2639230,0,5,0
1582562159438,2640148,0,5,0
1582562159538,2639740,0,5,0
1582562159638,2640228,0,5,0
1582562159738,2639416,0,5,0
1582562159838,2638739,0,5,0
1582562159938,2637497,0,5,0
1582562160038,2635200,0,5,0
1582562160138,2633360,0,5,0
1582562160241,2631865,0,5,0
1582562160340,2630796,0,5,0
1582562160439,2629502,0,5,0
1582562160541,2628789,0,5,0
1582562160640,2628066,0,5,0
1582562160739,2626369,0,5,0
1582562160839,2624607,0,5,0
1582562160939,2623491,0,5,0
1582562161038,2623106,0,5,0
1582562161139,2623358,0,5,0
1582562161239,2622830,0,5,0
1582562161341,2622955,0,5,0
1582562161440,2623599,0,5,0
1582562161540,2622905,0,5,0
1582562161640,2620951,0,5,0
1582562161740,2619489,0,5,0
1582562161840,2618225,0,5,0
1582562161940,2617283,0,5,0
1582562162039,2616671,0,5,0
1582562162140,2616352,0,5,0
1582562162241,2616139,0,5,0
1582562162340,2615675,0,5,0
1582562162441,2614333,0,5,0
1582562162542,2613099,0,5,0
1582562162642,2612601,0,5,0
1582562162741,2611897,0,5,0
1582562162841,2611378,0,5,0
1582562162942,2611305,0,5,0
1582562163041,2611118,0,5,0
1582562163142,2611241,0,5,0
1582562163242,2610565,0,5,0
1582562163342,2609530,0,5,0
1582562163442,2608609,0,5,0
1582562163551,2608105,0,5,0
1582562163651,2607766,0,5,0
1582562163751,2607840,0,5,0
1582562163851,2608115,0,5,0
1582562163951,2608683,0,5,0
1582562164050,2609040,0,5,0
1582562164151,2608676,0,5,0
1582562164251,2607703,0,5,0
1582562164351,2607351,0,5,0
1582562164451,2607082,0,5,0
1582562164551,2606987,0,5,0
1582562164651,2607154,0,5,0
1582562164751,2607089,0,5,0
1582562164852,2607247,0,5,0
1582562164951,2607563,0,5,0
1582562165051,2606587,0,5,0
1582562165152,2605763,0,5,0
1582562165242,2605149,0,5,0
1582562165341,2604660,0,5,0
1582562165442,2604272,0,5,0
1582562165542,2604321,0,5,0
1582562165642,2604156,0,5,0
1582562165742,2604250,0,5,0
1582562165842,2604535,0,5,0
1582562165942,2603464,0,5,0
1582562166041,2602582,0,5,0
1582562166142,2601847,0,5,0
1582562166242,2601504,0,5,0
1582562166342,2601309,0,5,0
1582562166442,2601493,0,5,0
1582562166542,2601815,0,5,0
1582562166642,2602192,0,5,0
1582562166742,2602789,0,5,0
1582562166842,2602487,0,5,0
1582562166943,2601892,0,5,0
1582562167042,2601605,0,5,0
1582562167143,2601487,0,5,0
1582562167243,2601266,0,5,0
1582562167353,2601372,0,5,0
1582562167457,2601722,0,5,0
1582562167543,2601964,0,5,0
1582562167643,2602391,0,5,0
1582562167743,2602263,0,5,0
1582562167843,2602000,0,5,0
1582562167943,2601876,0,5,0
1582562168043,2601841,0,5,0
1582562168144,2601901,0,5,0
1582562168245,2602204,0,5,0
1582562168344,2602657,0,5,0
1582562168445,2602835,0,5,0
1582562168545,2603163,0,5,0
1582562168644,2602545,0,5,0
1582562168745,2602205,0,5,0
1582562168844,2601622,0,5,0
1582562168944,2601665,0,5,0
1582562169043,2601552,0,5,0
1582562169155,2601847,0,5,0
1582562169255,2602260,0,5,0
1582562169355,2602397,0,5,0
1582562169455,2602730,0,5,0
1582562169555,2601841,0,5,0
1582562169655,2600943,0,5,0
1582562169755,2600566,0,5,0
1582562169855,2600264,0,5,0
1582562169957,2600009,0,5,0
1582562170054,2600252,0,5,0
1582562170155,2600350,0,5,0
1582562170255,2600635,0,5,0
1582562170355,2600962,0,5,0
1582562170456,2600081,0,5,0
1582562170555,2599215,0,5,0
1582562170655,2598786,0,5,0
1582562170745,2598452,0,5,0
1582562170845,2598298,0,5,0
1582562170945,2598133,0,5,0
1582562171045,2598316,0,5,0
1582562171145,2598494,0,5,0
1582562171245,2598748,0,5,0
1582562171346,2597729,0,5,0
1582562171446,2600581,0,5,0
1582562171546,2605192,0,5,0
1582562171646,2607828,0,5,0
1582562171746,2608947,0,5,0
1582562171846,2611684,0,5,0
1582562171946,2615841,0,5,0
1582562172046,2621716,0,5,0
1582562172146,2627539,0,5,0
1582562172246,2630272,0,5,0
1582562172346,2632534,0,5,0
1582562172457,2631685,0,5,0
1582562172557,2633070,0,5,0
1582562172657,2635020,0,5,0
1582562172757,2636128,0,5,0
1582562172857,2636940,0,5,0
1582562172959,2637675,0,5,0
1582562173048,2638345,0,5,0
1582562173148,2637860,0,5,0
1582562173248,2637719,0,5,0
1582562173348,2637445,0,5,0
1582562173448,2637499,0,5,0
1582562173548,2637571,0,5,0
1582562173647,2637991,0,5,0
1582562173748,2638372,0,5,0
1582562173848,2638530,0,5,0
1582562173948,2637923,0,5,0
1582562174047,2637680,0,5,0
1582562174148,2637504,0,5,0
1582562174248,2637352,0,5,0
1582562174348,2637358,0,5,0
1582562174448,2637700,0,5,0
1582562174558,2638131,0,5,0
1582562174658,2638319,0,5,0
1582562174759,2637789,0,5,0
1582562174858,2640091,0,5,0
1582562174958,2642938,0,5,0
1582562175057,2643617,0,5,0
1582562175158,2641325,0,5,0
1582562175258,2641379,0,5,0
1582562175358,2642126,0,5,0
1582562175458,2642717,0,5,0
1582562175559,2642582,0,5,0
1582562175659,2642235,0,5,0
1582562175749,2642106,0,5,0
1582562175849,2641579,0,5,0
1582562175949,2640827,0,5,0
1582562176048,2640210,0,5,0
1582562176149,2639845,0,5,0
1582562176249,2639582,0,5,0
1582562176349,2639761,0,5,0
1582562176449,2638990,0,5,0
1582562176549,2637664,0,5,0
1582562176649,2636522,0,5,0
1582562176749,2635711,0,5,0
1582562176849,2635078,0,5,0
1582562176949,2634734,0,5,0
1582562177049,2634676,0,5,0
1582562177149,2634571,0,5,0
1582562177249,2633474,0,5,0
1582562177350,2632153,0,5,0
1582562177450,2631385,0,5,0
1582562177550,2630758,0,5,0
1582562177650,2630344,0,5,0
1582562177750,2630237,0,5,0
1582562177850,2630229,0,5,0
1582562177950,2630633,0,5,0
1582562178049,2630025,0,5,0
1582562178160,2628738,0,5,0
1582562178260,2627828,0,5,0
1582562178360,2627405,0,5,0
1582562178461,2626997,0,5,0
1582562178561,2627037,0,5,0
1582562178661,2627303,0,5,0
1582562178761,2627754,0,5,0
1582562178861,2628549,0,5,0
1582562178961,2628369,0,5,0
1582562179060,2629685,0,5,0
1582562179161,2631365,0,5,0
1582562179261,2631775,0,5,0
1582562179361,2630869,0,5,0
1582562179461,2630492,0,5,0
1582562179561,2630195,0,5,0
1582562179661,2629956,0,5,0
1582562179761,2629807,0,5,0
1582562179861,2628493,0,5,0
1582562179962,2627412,0,5,0
1582562180061,2626679,0,5,0
1582562180163,2626203,0,5,0
1582562180262,2626029,0,5,0
1582562180362,2626205,0,5,0
1582562180462,2626377,0,5,0
1582562180562,2626552,0,5,0
1582562180662,2625426,0,5,0
1582562180752,2624649,0,5,0
1582562180852,2624366,0,5,0
1582562180952,2624119,0,5,0
1582562181051,2624072,0,5,0
1582562181152,2624480,0,5,0
1582562181252,2624869,0,5,0
1582562181352,2625138,0,5,0
1582562181453,2624102,0,5,0
1582562181552,2623205,0,5,0
1582562181652,2622847,0,5,0
1582562181753,2622443,0,5,0
1582562181852,2622448,0,5,0
1582562181953,2622399,0,5,0
1582562182052,2622848,0,5,0
1582562182153,2623443,0,5,0
1582562182253,2623248,0,5,0
1582562182363,2622334,0,5,0
1582562182463,2621701,0,5,0
1582562182563,2621408,0,5,0
1582562182663,2621409,0,5,0
1582562182753,2621617,0,5,0
1582562182853,2622102,0,5,0
1582562182953,2622548,0,5,0
1582562183053,2623245,0,5,0
1582562183164,2622468,0,5,0
1582562183264,2621767,0,5,0
1582562183354,2621555,0,5,0
1582562183466,2621349,0,5,0
1582562183564,2621433,0,5,0
1582562183654,2621820,0,5,0
1582562183754,2622298,0,5,0
1582562183854,2623140,0,5,0
1582562183966,2622913,0,5,0
1582562184064,2622250,0,5,0
1582562184165,2622738,0,5,0
1582562184266,2624413,0,5,0
1582562184365,2626561,0,5,0
1582562184465,2628254,0,5,0
1582562184565,2629849,0,5,0
1582562184665,2630640,0,5,0
1582562184766,2631244,0,5,0
1582562184865,2632080,0,5,0
1582562184965,2633068,0,5,0
1582562185065,2632978,0,5,0
1582562185165,2632789,0,5,0
1582562185265,2632570,0,5,0
1582562185365,2632817,0,5,0
1582562185467,2632790,0,5,0
1582562185565,2632539,0,5,0
1582562185665,2630972,0,5,0
1582562185756,2629542,0,5,0
1582562185855,2628300,0,5,0
1582562185956,2627558,0,5,0
1582562186055,2626910,0,5,0
1582562186156,2626717,0,5,0
1582562186256,2626703,0,5,0
1582562186356,2626641,0,5,0
1582562186456,2625698,0,5,0
1582562186556,2624449,0,5,0
1582562186656,2623914,0,5,0
1582562186756,2623400,0,5,0
1582562186856,2623332,0,5,0
1582562186956,2623535,0,5,0
1582562187055,2623686,0,5,0
1582562187156,2623427,0,5,0
1582562187256,2621968,0,5,0
1582562187366,2620998,0,5,0
1582562187467,2620243,0,5,0
1582562187567,2619919,0,5,0
1582562187667,2619896,0,5,0
1582562187767,2620178,0,5,0
1582562187867,2620396,0,5,0
1582562187967,2620608,0,5,0
1582562188066,2619310,0,5,0
1582562188167,2618247,0,5,0
1582562188267,2617793,0,5,0
1582562188367,2617385,0,5,0
1582562188468,2617349,0,5,0
1582562188567,2617607,0,5,0
1582562188667,2618127,0,5,0
1582562188767,2618595,0,5,0
1582562188867,2618716,0,5,0
1582562188968,2617548,0,5,0
1582562189067,2617045,0,5,0
1582562189168,2616873,0,5,0
1582562189268,2617052,0,5,0
1582562189368,2617553,0,5,0
1582562189468,2618217,0,5,0
1582562189568,2618820,0,5,0
1582562189668,2619708,0,5,0
1582562189768,2619707,0,5,0
1582562189868,2619086,0,5,0
1582562189968,2619075,0,5,0
1582562190068,2619261,0,5,0
1582562190169,2620203,0,5,0
1582562190272,2622819,0,5,0
1582562190359,2624784,0,5,0
1582562190458,2625829,0,5,0
1582562190558,2626655,0,5,0
1582562190658,2626519,0,5,0
1582562190758,2626229,0,5,0
1582562190858,2628574,0,5,0
1582562190959,2631413,0,5,0
1582562191058,2632639,0,5,0
1582562191159,2630193,0,5,0
1582562191259,2627397,0,5,0
1582562191359,2625873,0,5,0
1582562191459,2624156,0,5,0
1582562191559,2622671,0,5,0
1582562191659,2624290,0,5,0
1582562191759,2627153,0,5,0
1582562191859,2629202,0,5,0
1582562192005,2630544,0,5,0
1582562192060,2631761,0,5,0
1582562192162,2633197,0,5,0
1582562192263,2634433,0,5,0
1582562192359,2634857,0,5,0
1582562192459,2634590,0,5,0
1582562192560,2633865,0,5,0
1582562192662,2634878,0,5,0
1582562192762,2631635,0,5,0
1582562192862,2628727,0,5,0
1582562192961,2627248,0,5,0
1582562193060,2626845,0,5,0
1582562193160,2628439,0,5,0
1582562193262,2629320,0,5,0
1582562193365,2628839,0,5,0
1582562193484,2628817,0,5,0
1582562193563,2627969,0,5,0
1582562193661,2627737,0,5,0
1582562193762,2629042,0,5,0
1582562193861,2628291,0,5,0
1582562193961,2626210,0,5,0
1582562194063,2622425,0,5,0
1582562194165,2618547,0,5,0
1582562194264,2615505,0,5,0
1582562194363,2614291,0,5,0
1582562194463,2612946,0,5,0
1582562194563,2611404,0,5,0
1582562194664,2610276,0,5,0
1582562194764,2609427,0,5,0
1582562194863,2608511,0,5,0
1582562194963,2606313,0,5,0
1582562195062,2603993,0,5,0
1582562195163,2602259,0,5,0
1582562195263,2601046,0,5,0
1582562195363,2600426,0,5,0
1582562195464,2600215,0,5,0
1582562195563,2602235,0,5,0
1582562195664,2606046,0,5,0
1582562195764,2607496,0,5,0
1582562195864,2607820,0,5,0
1582562195966,2606679,0,5,0
1582562196063,2605745,0,5,0
1582562196164,2604932,0,5,0
1582562196264,2604619,0,5,0
1582562196364,2604576,0,5,0
1582562196464,2604499,0,5,0
1582562196564,2603938,0,5,0
1582562196665,2602850,0,5,0
1582562196764,2602425,0,5,0
1582562196865,2602067,0,5,0
1582562196964,2602365,0,5,0
1582562197064,2602887,0,5,0
1582562197165,2603699,0,5,0
1582562197265,2604719,0,5,0
1582562197365,2605251,0,5,0
1582562197465,2605085,0,5,0
1582562197565,2605196,0,5,0
1582562197665,2605479,0,5,0
1582562197765,2606123,0,5,0
1582562197865,2607057,0,5,0
1582562197965,2608198,0,5,0
1582562198065,2609495,0,5,0
1582562198167,2610491,0,5,0
1582562198268,2610455,0,5,0
1582562198364,2610706,0,5,0
1582562198464,2611190,0,5,0
1582562198566,2611779,0,5,0
1582562198666,2612510,0,5,0
1582562198764,2613276,0,5,0
1582562198865,2614161,0,5,0
1582562198966,2614804,0,5,0
1582562199063,2614287,0,5,0
1582562199165,2613732,0,5,0
1582562199265,2613598,0,5,0
1582562199364,2614028,0,5,0
1582562199464,2614072,0,5,0
1582562199565,2614785,0,5,0
1582562199665,2615463,0,5,0
1582562199765,2616209,0,5,0
1582562199865,2615700,0,5,0
1582562199976,2615159,0,5,0
1582562200074,2615104,0,5,0
1582562200175,2615002,0,5,0
1582562200275,2615111,0,5,0
1582562200375,2615408,0,5,0
1582562200475,2615895,0,5,0
1582562200575,2616438,0,5,0
1582562200675,2616493,0,5,0
1582562200766,2615538,0,5,0
1582562200865,2615028,0,5,0
1582562200965,2614643,0,5,0
1582562201065,2614679,0,5,0
1582562201166,2614821,0,5,0
1582562201265,2615190,0,5,0
1582562201366,2615528,0,5,0
1582562201466,2616066,0,5,0
1582562201576,2616240,0,5,0
1582562201676,2615193,0,5,0
1582562201766,2614630,0,5,0
1582562201866,2614435,0,5,0
1582562201966,2614532,0,5,0
1582562202066,2614836,0,5,0
1582562202166,2615273,0,5,0
1582562202266,2616057,0,5,0
1582562202366,2616712,0,5,0
1582562202466,2616679,0,5,0
1582562202566,2615954,0,5,0
1582562202666,2616014,0,5,0
1582562202767,2616180,0,5,0
1582562202867,2616341,0,5,0
1582562202967,2617030,0,5,0
1582562203066,2617464,0,5,0
1582562203167,2617977,0,5,0
1582562203267,2618407,0,5,0
1582562203367,2617590,0,5,0
1582562203467,2617140,0,5,0
1582562203567,2617133,0,5,0
1582562203677,2616963,0,5,0
1582562203778,2617165,0,5,0
1582562203877,2617619,0,5,0
1582562203978,2617949,0,5,0
1582562204078,2618250,0,5,0
1582562204178,2618537,0,5,0
1582562204278,2617767,0,5,0
1582562204378,2617419,0,5,0
1582562204478,2617364,0,5,0
1582562204578,2617399,0,5,0
1582562204678,2617619,0,5,0
1582562204778,2618153,0,5,0
1582562204878,2618633,0,5,0
1582562204978,2619110,0,5,0
1582562205077,2619246,0,5,0
1582562205178,2618449,0,5,0
1582562205278,2618222,0,5,0
1582562205368,2618252,0,5,0
1582562205468,2618281,0,5,0
1582562205569,2618289,0,5,0
1582562205668,2618602,0,5,0
1582562205769,2619068,0,5,0
1582562205869,2618947,0,5,0
1582562205969,2618092,0,5,0
1582562206068,2617580,0,5,0
1582562206169,2617253,0,5,0
1582562206269,2616992,0,5,0
1582562206369,2616992,0,5,0
1582562206469,2617162,0,5,0
1582562206569,2617420,0,5,0
