timestamp,ppg,label,stage,hand
1582811242031,4199993,0,1,0
1582811242126,4200284,0,1,0
1582811242227,4200183,0,1,0
1582811242329,4200263,0,1,0
1582811242428,2936549,0,1,0
1582811242530,2894636,0,1,0
1582811242630,3475494,0,1,0
1582811242728,3564190,0,1,0
1582811242828,3565007,0,1,0
1582811242928,3887427,0,1,0
1582811243028,3893200,0,1,0
1582811243128,4036667,0,1,0
1582811243228,4059552,0,1,0
1582811243328,4061033,0,1,0
1582811243428,4151019,0,1,0
1582811243529,4153606,0,1,0
1582811243628,3163900,0,1,0
1582811243728,3144005,0,1,0
1582811243832,3143147,0,1,0
1582811243931,3142427,0,1,0
1582811244032,3141808,0,1,0
1582811244132,3140885,0,1,0
1582811244232,3140559,0,1,0
1582811244331,3140523,0,1,0
1582811244432,3140533,0,1,0
1582811244532,3140318,0,1,0
1582811244632,3139190,0,1,0
1582811244733,3138950,0,1,0
1582811244832,3138909,0,1,0
1582811244932,3139163,0,1,0
1582811245032,3139308,0,1,0
1582811245133,3139509,0,1,0
1582811245232,3139557,0,1,0
1582811245335,3139667,0,1,0
1582811245432,3140024,0,1,0
1582811245533,3139068,0,1,0
1582811245633,3138352,0,1,0
1582811245733,3137843,0,1,0
1582811245837,3137216,0,1,0
1582811245938,3136494,0,1,0
1582811246037,3137305,0,1,0
1582811246137,3138188,0,1,0
1582811246238,3138433,0,1,0
1582811246337,3137898,0,1,0
1582811246437,3138102,0,1,0
1582811246537,3139106,0,1,0
1582811246637,3140061,0,1,0
1582811246737,3140930,0,1,0
1582811246838,3140995,0,1,0
1582811246937,3140051,0,1,0
1582811247037,3138488,0,1,0
1582811247138,3139076,0,1,0
1582811247238,3141954,0,1,0
1582811247338,3144677,0,1,0
1582811247438,3146663,0,1,0
1582811247538,3150804,0,1,0
1582811247638,3153092,0,1,0
1582811247738,3152251,0,1,0
1582811247840,3150801,0,1,0
1582811247946,3149706,0,1,0
1582811248041,3148092,0,1,0
1582811248227,3146655,0,1,0
1582811248240,3145362,0,1,0
1582811248340,3143365,0,1,0
1582811248440,3139627,0,1,0
1582811248539,3136337,0,1,0
1582811248640,3134209,0,1,0
1582811248739,3131891,0,1,0
1582811248841,3130326,0,1,0
1582811248941,3129440,0,1,0
1582811249041,3129599,0,1,0
1582811249141,3127272,0,1,0
1582811249242,3124796,0,1,0
1582811249342,3124138,0,1,0
1582811249442,3123238,0,1,0
1582811249543,3122587,0,1,0
1582811249642,3124353,0,1,0
1582811249741,3126124,0,1,0
1582811249842,3124979,0,1,0
1582811249941,3122624,0,1,0
1582811250041,3122405,0,1,0
1582811250142,3120577,0,1,0
1582811250242,3117856,0,1,0
1582811250342,3116124,0,1,0
1582811250442,3114730,0,1,0
1582811250542,3098134,0,1,0
1582811250642,3108689,0,1,0
1582811250742,3122162,0,1,0
1582811250845,3147986,0,1,0
1582811250942,3167516,0,1,0
1582811251042,3175912,0,1,0
1582811251142,3173816,0,1,0
1582811251243,3183646,0,1,0
1582811251345,3180656,0,1,0
1582811251444,3176760,0,1,0
1582811251543,3173668,0,1,0
1582811251643,3171111,0,1,0
1582811251743,3168112,0,1,0
1582811251843,3164746,0,1,0
1582811251943,3162701,0,1,0
1582811252043,3159725,0,1,0
1582811252143,3157263,0,1,0
1582811252244,3155814,0,1,0
1582811252343,3156068,0,1,0
1582811252443,3159757,0,1,0
1582811252544,3157977,0,1,0
1582811252645,3152108,0,1,0
1582811252744,3144284,0,1,0
1582811252844,3135817,0,1,0
1582811252943,3124561,0,1,0
1582811253044,3112080,0,1,0
1582811253144,3103382,0,1,0
1582811253244,3101936,0,1,0
1582811253346,3102867,0,1,0
1582811253444,3103446,0,1,0
1582811253544,3104629,0,1,0
1582811253644,3105001,0,1,0
1582811253744,3102921,0,1,0
1582811253846,3100373,0,1,0
1582811253944,3099637,0,1,0
1582811254045,3097719,0,1,0
1582811254144,3092759,0,1,0
1582811254245,3090517,0,1,0
1582811254345,3090692,0,1,0
1582811254444,3093073,0,1,0
1582811254545,3097236,0,1,0
1582811254645,3101494,0,1,0
1582811254745,3104240,0,1,0
1582811254845,3103968,0,1,0
1582811254945,3103878,0,1,0
1582811255045,3104383,0,1,0
1582811255145,3104695,0,1,0
1582811255246,3105447,0,1,0
1582811255345,3107072,0,1,0
1582811255445,3108946,0,1,0
1582811255545,3109915,0,1,0
1582811255645,3107673,0,1,0
1582811255747,3105563,0,1,0
1582811255847,3104284,0,1,0
1582811255947,3102441,0,1,0
1582811256047,3101366,0,1,0
1582811256147,3100517,0,1,0
1582811256247,3096594,0,1,0
1582811256346,3091738,0,1,0
1582811256447,3088503,0,1,0
1582811256546,3085787,0,1,0
1582811256649,3083389,0,1,0
1582811256747,3082037,0,1,0
1582811256846,3080889,0,1,0
1582811256946,3075291,0,1,0
1582811257046,3069502,0,1,0
1582811257146,3065214,0,1,0
1582811257246,3061030,0,1,0
1582811257349,3057583,0,1,0
1582811257448,3054608,0,1,0
1582811257548,3052305,0,1,0
1582811257649,3046052,0,1,0
1582811257749,3036915,0,1,0
1582811257849,3029633,0,1,0
1582811257949,3024620,0,1,0
1582811258048,3020273,0,1,0
1582811258147,3017743,0,1,0
1582811258248,3017151,0,1,0
1582811258347,3018260,0,1,0
1582811258447,3018767,0,1,0
1582811258548,3016862,0,1,0
1582811258647,3006365,0,1,0
1582811258747,2996589,0,1,0
1582811258848,2995869,0,1,0
1582811258947,2995943,0,1,0
1582811259047,2991934,0,1,0
1582811259148,2988983,0,1,0
1582811259248,2987575,0,1,0
1582811259348,2987799,0,1,0
1582811259448,2989463,0,1,0
1582811259548,2993210,0,1,0
1582811259648,2989317,0,1,0
1582811259748,2985130,0,1,0
1582811259849,2985629,0,1,0
1582811259948,2991187,0,1,0
1582811260049,2996540,0,1,0
1582811260148,3000214,0,1,0
1582811260249,3002450,0,1,0
1582811260349,3004208,0,1,0
1582811260448,3005671,0,1,0
1582811260549,3006847,0,1,0
1582811260649,3001250,0,1,0
1582811260749,2995697,0,1,0
1582811260849,2993095,0,1,0
1582811260949,2991999,0,1,0
1582811261049,2992391,0,1,0
1582811261149,2994286,0,1,0
1582811261250,2996488,0,1,0
1582811261350,2998775,0,1,0
1582811261449,3001503,0,1,0
1582811261550,3004974,0,1,0
1582811261650,3004846,0,1,0
1582811261749,3000004,0,1,0
1582811261850,2998136,0,1,0
1582811261950,2997894,0,1,0
1582811262050,2996887,0,1,0
1582811262150,2997203,0,1,0
1582811262250,2998346,0,1,0
1582811262350,2999813,0,1,0
1582811262450,3000904,0,1,0
1582811262550,3002072,0,1,0
1582811262650,3003187,0,1,0
1582811262750,2999477,0,1,0
1582811262850,2998032,0,1,0
1582811262950,2999365,0,1,0
1582811263050,3002270,0,1,0
1582811263150,3006542,0,1,0
1582811263250,3011284,0,1,0
1582811263351,3015563,0,1,0
1582811263450,3019127,0,1,0
1582811263550,3022870,0,1,0
1582811263650,3027523,0,1,0
1582811263751,3027899,0,1,0
1582811263851,3027596,0,1,0
1582811263951,3029381,0,1,0
1582811264051,3031750,0,1,0
1582811264151,3034861,0,1,0
1582811264251,3038486,0,1,0
1582811264352,3042163,0,1,0
1582811264452,3046163,0,1,0
1582811264553,3050024,0,1,0
1582811264652,3053667,0,1,0
1582811264752,3055599,0,1,0
1582811264852,3053789,0,1,0
1582811264953,3053366,0,1,0
1582811265051,3054322,0,1,0
1582811265151,3055901,0,1,0
1582811265251,3058081,0,1,0
1582811265351,3060863,0,1,0
1582811265452,3063562,0,1,0
1582811265551,3066016,0,1,0
1582811265651,3068414,0,1,0
1582811265752,3070651,0,1,0
1582811265852,3069314,0,1,0
1582811265951,3068114,0,1,0
1582811266052,3068529,0,1,0
1582811266151,3068885,0,1,0
1582811266252,3069258,0,1,0
1582811266352,3070667,0,1,0
1582811266452,3072415,0,1,0
1582811266552,3073787,0,1,0
1582811266652,3075152,0,1,0
1582811266752,3076760,0,1,0
1582811266852,3075437,0,1,0
1582811266952,3073860,0,1,0
1582811267052,3073407,0,1,0
1582811267152,3073440,0,1,0
1582811267253,3073722,0,1,0
1582811267352,3074653,0,1,0
1582811267452,3075982,0,1,0
1582811267553,3079081,0,1,0
1582811267652,3082994,0,1,0
1582811267753,3086228,0,1,0
1582811267853,3085866,0,1,0
1582811267953,3083632,0,1,0
1582811268111,3082566,0,1,0
1582811268154,3082358,0,1,0
1582811268254,3082552,0,1,0
1582811268354,3083592,0,1,0
1582811268455,3085325,0,1,0
1582811268555,3087279,0,1,0
1582811268655,3089022,0,1,0
1582811268755,3091334,0,1,0
1582811268855,3092229,0,1,0
1582811268954,3090111,0,1,0
1582811269054,3088639,0,1,0
1582811269154,3087776,0,1,0
1582811269254,3087081,0,1,0
1582811269356,3087029,0,1,0
1582811269454,3087614,0,1,0
1582811269554,3087966,0,1,0
1582811269655,3088640,0,1,0
1582811269754,3089668,0,1,0
1582811269854,3090392,0,1,0
1582811269954,3087606,0,1,0
1582811270054,3085032,0,1,0
1582811270154,3083714,0,1,0
1582811270255,3082836,0,1,0
1582811270355,3082475,0,1,0
1582811270455,3083641,0,1,0
1582811270555,3084589,0,1,0
1582811270655,3085675,0,1,0
1582811270755,3087202,0,1,0
1582811270863,3088406,0,1,0
1582811270955,3087170,0,1,0
1582811271055,3084016,0,1,0
1582811271155,3082345,0,1,0
1582811271255,3081155,0,1,0
1582811271355,3079907,0,1,0
1582811271455,3079339,0,1,0
1582811271555,3079335,0,1,0
1582811271656,3079368,0,1,0
1582811271755,3079558,0,1,0
1582811271856,3079859,0,1,0
1582811271956,3079186,0,1,0
1582811272056,3075855,0,1,0
1582811272156,3073958,0,1,0
1582811272256,3072822,0,1,0
1582811272356,3071989,0,1,0
1582811272456,3072024,0,1,0
1582811272556,3072989,0,1,0
1582811272656,3075363,0,1,0
1582811272756,3078148,0,1,0
1582811272856,3080507,0,1,0
1582811272956,3081599,0,1,0
1582811273056,3079979,0,1,0
1582811273156,3078822,0,1,0
1582811273257,3078665,0,1,0
1582811273356,3078907,0,1,0
1582811273458,3079754,0,1,0
1582811273557,3081300,0,1,0
1582811273656,3082907,0,1,0
1582811273756,3084982,0,1,0
1582811273857,3087013,0,1,0
1582811273957,3088725,0,1,0
1582811274057,3087511,0,1,0
1582811274157,3086477,0,1,0
1582811274257,3086334,0,1,0
1582811274357,3086519,0,1,0
1582811274457,3087002,0,1,0
1582811274557,3088168,0,1,0
1582811274657,3089401,0,1,0
1582811274758,3090794,0,1,0
1582811274857,3092425,0,1,0
1582811274957,3094305,0,1,0
1582811275058,3093937,0,1,0
1582811275157,3092759,0,1,0
1582811275258,3092278,0,1,0
1582811275358,3092250,0,1,0
1582811275458,3092599,0,1,0
1582811275558,3093795,0,1,0
1582811275658,3095549,0,1,0
1582811275757,3097480,0,1,0
1582811275858,3099474,0,1,0
1582811275958,3101544,0,1,0
1582811276058,3102231,0,1,0
1582811276157,3101593,0,1,0
1582811276258,3101095,0,1,0
1582811276358,3101157,0,1,0
1582811276457,3101089,0,1,0
1582811276557,3101257,0,1,0
1582811276658,3101911,0,1,0
1582811276757,3102914,0,1,0
1582811276858,3103985,0,1,0
1582811276958,3105205,0,1,0
1582811277057,3105575,0,1,0
1582811277158,3104439,0,1,0
1582811277258,3103542,0,1,0
1582811277358,3103365,0,1,0
1582811277458,3103039,0,1,0
1582811277558,3103704,0,1,0
1582811277658,3104494,0,1,0
1582811277759,3105589,0,1,0
1582811277858,3106974,0,1,0
1582811277958,3109281,0,1,0
1582811278059,3111955,0,1,0
1582811278159,3111974,0,1,0
1582811278259,3112088,0,1,0
1582811278359,3113083,0,1,0
1582811278459,3114122,0,1,0
1582811278558,3115962,0,1,0
1582811278659,3117786,0,1,0
1582811278760,3119237,0,1,0
1582811278860,3120444,0,1,0
1582811278960,3122448,0,1,0
1582811279060,3123778,0,1,0
1582811279160,3123428,0,1,0
1582811279260,3122021,0,1,0
1582811279360,3120672,0,1,0
1582811279461,3120223,0,1,0
1582811279560,3120175,0,1,0
1582811279660,3120759,0,1,0
1582811279761,3122090,0,1,0
1582811279861,3123799,0,1,0
1582811279961,3125557,0,1,0
1582811280061,3127273,0,1,0
1582811280161,3128788,0,1,0
1582811280261,3128025,0,1,0
1582811280361,3127035,0,1,0
1582811280461,3125879,0,1,0
1582811280561,3124987,0,1,0
1582811280661,3124641,0,1,0
1582811280762,3124703,0,1,0
1582811280871,3124783,0,1,0
1582811280961,3125087,0,1,0
1582811281062,3125937,0,1,0
1582811281161,3127149,0,1,0
1582811281262,3127356,0,1,0
1582811281362,3126493,0,1,0
1582811281462,3126228,0,1,0
1582811281562,3126330,0,1,0
1582811281662,3126326,0,1,0
1582811281762,3126851,0,1,0
1582811281862,3127762,0,1,0
1582811281962,3128879,0,1,0
1582811282062,3129796,0,1,0
1582811282162,3130940,0,1,0
1582811282263,3131004,0,1,0
1582811282362,3129361,0,1,0
1582811282462,3127971,0,1,0
1582811282563,3127219,0,1,0
1582811282665,3126668,0,1,0
1582811282763,3126571,0,1,0
1582811282863,3126804,0,1,0
1582811282963,3127146,0,1,0
1582811283065,3127968,0,1,0
1582811283164,3128677,0,1,0
1582811283266,3129580,0,1,0
1582811283365,3127962,0,1,0
1582811283464,3126460,0,1,0
1582811283565,3125752,0,1,0
1582811283664,3125053,0,1,0
1582811283763,3124915,0,1,0
1582811283864,3125196,0,1,0
1582811283964,3125678,0,1,0
1582811284063,3126365,0,1,0
1582811284163,3127381,0,1,0
1582811284263,3128473,0,1,0
1582811284365,3128228,0,1,0
1582811284463,3126610,0,1,0
1582811284563,3125488,0,1,0
1582811284665,3124977,0,1,0
1582811284765,3124552,0,1,0
1582811284863,3124584,0,1,0
1582811284964,3125239,0,1,0
1582811285065,3125811,0,1,0
1582811285166,3126819,0,1,0
1582811285265,3127534,0,1,0
1582811285365,3128446,0,1,0
1582811285465,3127305,0,1,0
1582811285565,3126081,0,1,0
1582811285665,3125539,0,1,0
1582811285765,3124949,0,1,0
1582811285865,3124954,0,1,0
1582811285965,3125404,0,1,0
1582811286065,3126033,0,1,0
1582811286165,3126736,0,1,0
1582811286265,3127496,0,1,0
1582811286365,3128289,0,1,0
1582811286465,3127558,0,1,0
1582811286565,3126346,0,1,0
1582811286665,3125883,0,1,0
1582811286765,3125521,0,1,0
1582811286865,3125632,0,1,0
1582811286965,3126062,0,1,0
1582811287065,3126855,0,1,0
1582811287164,3127594,0,1,0
1582811287265,3128555,0,1,0
1582811287365,3129568,0,1,0
1582811287465,3128848,0,1,0
1582811287565,3127622,0,1,0
1582811287665,3126892,0,1,0
1582811287765,3126379,0,1,0
1582811287866,3125935,0,1,0
1582811287966,3126418,0,1,0
1582811288066,3127107,0,1,0
1582811288166,3127705,0,1,0
1582811288266,3128831,0,1,0
1582811288366,3129540,0,1,0
1582811288466,3128368,0,1,0
1582811288566,3126946,0,1,0
1582811288666,3125990,0,1,0
1582811288767,3125326,0,1,0
1582811288867,3125305,0,1,0
1582811288965,3125735,0,1,0
1582811289066,3126447,0,1,0
1582811289166,3127378,0,1,0
1582811289268,3128354,0,1,0
1582811289366,3129522,0,1,0
1582811289466,3129089,0,1,0
1582811289566,3127611,0,1,0
1582811289667,3126599,0,1,0
1582811289767,3125901,0,1,0
1582811289867,3125710,0,1,0
1582811289967,3126367,0,1,0
1582811290067,3127036,0,1,0
1582811290166,3127857,0,1,0
1582811290267,3128574,0,1,0
1582811290367,3129876,0,1,0
1582811290467,3129992,0,1,0
1582811290567,3128829,0,1,0
1582811290667,3128085,0,1,0
1582811290767,3128753,0,1,0
1582811290867,3129203,0,1,0
1582811290967,3129570,0,1,0
1582811291067,3130209,0,1,0
1582811291167,3131134,0,1,0
1582811291268,3131796,0,1,0
1582811291367,3132255,0,1,0
1582811291467,3131927,0,1,0
1582811291568,3130336,0,1,0
1582811291667,3128909,0,1,0
1582811291767,3128036,0,1,0
1582811291868,3127145,0,1,0
1582811291968,3127262,0,1,0
1582811292068,3127427,0,1,0
1582811292168,3127951,0,1,0
1582811292268,3128320,0,1,0
1582811292368,3128062,0,1,0
1582811292468,3126376,0,1,0
1582811292568,3124835,0,1,0
1582811292668,3124759,0,1,0
1582811292769,3124786,0,1,0
1582811292868,3125175,0,1,0
1582811292968,3125613,0,1,0
1582811293068,3125676,0,1,0
1582811293169,3126298,0,1,0
1582811293269,3127050,0,1,0
1582811293370,3127316,0,1,0
1582811293469,3126905,0,1,0
1582811293569,3124935,0,1,0
1582811293670,3123832,0,1,0
1582811293769,3123510,0,1,0
1582811293870,3123435,0,1,0
1582811293970,3123972,0,1,0
1582811294070,3124748,0,1,0
1582811294169,3125740,0,1,0
1582811294270,3126962,0,1,0
1582811294369,3128447,0,1,0
1582811294469,3129136,0,1,0
1582811294570,3127902,0,1,0
1582811294669,3126804,0,1,0
1582811294770,3126437,0,1,0
1582811294870,3126075,0,1,0
1582811294969,3125577,0,1,0
1582811295070,3125574,0,1,0
1582811295170,3126145,0,1,0
1582811295270,3126716,0,1,0
1582811295370,3127409,0,1,0
1582811295470,3127712,0,1,0
1582811295570,3126529,0,1,0
1582811295671,3125577,0,1,0
1582811295771,3125247,0,1,0
1582811295871,3125081,0,1,0
1582811295971,3125443,0,1,0
1582811296072,3125906,0,1,0
1582811296171,3126570,0,1,0
1582811296271,3127600,0,1,0
1582811296371,3128627,0,1,0
1582811296471,3128239,0,1,0
1582811296571,3127262,0,1,0
1582811296672,3126650,0,1,0
1582811296772,3126275,0,1,0
1582811296872,3126174,0,1,0
1582811296973,3126529,0,1,0
1582811297072,3127066,0,1,0
1582811297172,3127858,0,1,0
1582811297274,3128778,0,1,0
1582811297374,3129801,0,1,0
1582811297473,3129413,0,1,0
1582811297574,3128280,0,1,0
1582811297673,3127466,0,1,0
1582811297773,3126624,0,1,0
1582811297873,3125696,0,1,0
1582811297973,3125058,0,1,0
1582811298073,3125317,0,1,0
1582811298174,3125860,0,1,0
1582811298273,3126843,0,1,0
1582811298373,3128057,0,1,0
1582811298474,3127695,0,1,0
1582811298574,3126344,0,1,0
1582811298675,3125789,0,1,0
1582811298774,3125712,0,1,0
1582811298875,3125815,0,1,0
1582811298973,3125744,0,1,0
1582811299074,3125828,0,1,0
1582811299175,3126584,0,1,0
1582811299274,3127531,0,1,0
1582811299375,3129129,0,1,0
1582811299474,3129311,0,1,0
1582811299574,3127960,0,1,0
1582811299674,3127080,0,1,0
1582811299774,3126686,0,1,0
1582811299878,3126685,0,1,0
1582811299974,3127113,0,1,0
1582811300074,3127616,0,1,0
1582811300174,3128288,0,1,0
1582811300275,3129242,0,1,0
1582811300375,3130423,0,1,0
1582811300475,3130527,0,1,0
1582811300575,3129717,0,1,0
1582811300675,3129241,0,1,0
1582811300775,3129056,0,1,0
1582811300875,3128733,0,1,0
1582811300975,3129031,0,1,0
1582811301075,3129589,0,1,0
1582811301175,3130251,0,1,0
1582811301275,3130964,0,1,0
1582811301375,3131853,0,1,0
1582811301475,3131416,0,1,0
1582811301576,3130148,0,1,0
1582811301676,3129383,0,1,0
1582811301775,3128924,0,1,0
1582811301875,3128468,0,1,0
1582811301976,3128659,0,1,0
1582811302076,3129042,0,1,0
1582811302176,3129486,0,1,0
1582811302277,3130213,0,1,0
1582811302376,3130821,0,1,0
1582811302476,3130142,0,1,0
1582811302576,3128290,0,1,0
1582811302676,3126122,0,1,0
1582811302776,3124361,0,1,0
1582811302876,3122740,0,1,0
1582811302976,3121620,0,1,0
1582811303076,3121405,0,1,0
1582811303176,3121095,0,1,0
1582811303277,3120942,0,1,0
1582811303377,3121246,0,1,0
1582811303477,3120889,0,1,0
1582811303577,3119110,0,1,0
1582811303676,3118898,0,1,0
1582811303777,3120786,0,1,0
1582811303878,3121438,0,1,0
1582811303977,3121908,0,1,0
1582811304077,3122581,0,1,0
1582811304177,3122801,0,1,0
1582811304278,3123368,0,1,0
1582811304377,3124111,0,1,0
1582811304477,3125207,0,1,0
1582811304577,3124643,0,1,0
1582811304678,3123769,0,1,0
1582811304778,3122961,0,1,0
1582811304877,3122064,0,1,0
1582811304977,3121932,0,1,0
1582811305078,3122189,0,1,0
1582811305178,3122726,0,1,0
1582811305278,3123489,0,1,0
1582811305378,3124416,0,1,0
1582811305478,3126068,0,1,0
1582811305578,3126584,0,1,0
1582811305678,3126434,0,1,0
1582811305778,3126359,0,1,0
1582811305878,3126208,0,1,0
1582811305978,3125746,0,1,0
1582811306078,3125493,0,1,0
1582811306208,3125522,0,1,0
1582811306281,3126025,0,1,0
1582811306380,3126713,0,1,0
1582811306480,3127732,0,1,0
1582811306581,3127447,0,1,0
1582811306680,3125993,0,1,0
1582811306780,3124981,0,1,0
1582811306881,3124414,0,1,0
1582811306980,3123829,0,1,0
1582811307080,3123874,0,1,0
1582811307181,3124181,0,1,0
1582811307279,3124759,0,1,0
1582811307379,3125500,0,1,0
1582811307480,3126264,0,1,0
1582811307579,3126635,0,1,0
1582811307679,3125046,0,1,0
1582811307780,3123595,0,1,0
1582811307880,3122885,0,1,0
1582811307980,3122342,0,1,0
1582811308080,3121980,0,1,0
1582811308180,3122169,0,1,0
1582811308280,3122647,0,1,0
1582811308380,3123223,0,1,0
1582811308480,3124133,0,1,0
1582811308580,3125288,0,1,0
1582811308680,3124133,0,1,0
1582811308780,3122629,0,1,0
1582811308880,3121689,0,1,0
1582811308980,3121067,0,1,0
1582811309080,3120630,0,1,0
1582811309180,3120889,0,1,0
1582811309281,3121168,0,1,0
1582811309380,3121997,0,1,0
1582811309481,3122830,0,1,0
1582811309581,3123965,0,1,0
1582811309680,3123619,0,1,0
1582811309781,3122014,0,1,0
1582811309881,3120979,0,1,0
1582811309981,3120406,0,1,0
1582811310081,3119952,0,1,0
1582811310181,3120185,0,1,0
1582811310281,3120872,0,1,0
1582811310380,3121678,0,1,0
1582811310480,3122530,0,1,0
1582811310580,3123717,0,1,0
1582811310680,3123861,0,1,0
1582811310781,3122159,0,1,0
1582811310881,3120996,0,1,0
1582811310981,3120458,0,1,0
1582811311081,3119753,0,1,0
1582811311181,3119287,0,1,0
1582811311281,3119281,0,1,0
1582811311382,3120039,0,1,0
1582811311481,3120842,0,1,0
1582811311581,3121939,0,1,0
1582811311682,3122144,0,1,0
1582811311782,3120486,0,1,0
1582811311881,3119280,0,1,0
1582811311981,3118766,0,1,0
1582811312081,3118336,0,1,0
1582811312181,3118318,0,1,0
1582811312283,3118891,0,1,0
1582811312381,3119593,0,1,0
1582811312481,3120760,0,1,0
1582811312582,3122064,0,1,0
1582811312681,3123012,0,1,0
1582811312782,3121855,0,1,0
1582811312882,3120951,0,1,0
1582811312982,3120668,0,1,0
1582811313082,3120545,0,1,0
1582811313182,3120554,0,1,0
1582811313282,3121275,0,1,0
1582811313382,3122365,0,1,0
1582811313482,3123371,0,1,0
1582811313582,3124483,0,1,0
1582811313682,3125899,0,1,0
1582811313782,3125324,0,1,0
1582811313884,3123477,0,1,0
1582811313982,3122468,0,1,0
1582811314083,3121872,0,1,0
1582811314182,3121200,0,1,0
1582811314283,3121327,0,1,0
1582811314384,3121915,0,1,0
1582811314483,3122630,0,1,0
1582811314583,3123671,0,1,0
1582811314685,3124885,0,1,0
1582811314784,3125395,0,1,0
1582811314884,3123151,0,1,0
1582811314984,3121346,0,1,0
1582811315084,3119813,0,1,0
1582811315184,3119482,0,1,0
1582811315284,3119521,0,1,0
1582811315386,3119829,0,1,0
1582811315484,3120103,0,1,0
1582811315584,3120332,0,1,0
1582811315684,3120926,0,1,0
1582811315784,3121323,0,1,0
1582811315884,3119814,0,1,0
1582811315984,3118261,0,1,0
1582811316084,3117516,0,1,0
1582811316185,3117237,0,1,0
1582811316284,3117367,0,1,0
1582811316384,3118032,0,1,0
1582811316484,3118542,0,1,0
1582811316584,3119310,0,1,0
1582811316687,3120037,0,1,0
1582811316785,3118399,0,1,0
1582811316884,3116844,0,1,0
1582811316984,3116207,0,1,0
1582811317085,3115803,0,1,0
1582811317184,3115779,0,1,0
1582811317285,3116765,0,1,0
1582811317385,3117707,0,1,0
1582811317485,3118867,0,1,0
1582811317585,3120037,0,1,0
1582811317685,3120182,0,1,0
1582811317785,3119023,0,1,0
1582811317885,3117092,0,1,0
1582811317986,3115608,0,1,0
1582811318086,3114794,0,1,0
1582811318186,3114465,0,1,0
1582811318286,3114852,0,1,0
1582811318386,3115686,0,1,0
1582811318486,3116785,0,1,0
1582811318586,3117533,0,1,0
1582811318686,3115689,0,1,0
1582811318786,3113616,0,1,0
1582811318887,3111962,0,1,0
1582811318986,3110731,0,1,0
1582811319086,3110082,0,1,0
1582811319186,3110213,0,1,0
1582811319287,3110624,0,1,0
1582811319388,3111414,0,1,0
1582811319489,3112699,0,1,0
1582811319587,3113864,0,1,0
1582811319687,3112160,0,1,0
1582811319787,3110076,0,1,0
1582811319887,3108731,0,1,0
1582811319987,3108056,0,1,0
1582811320087,3107571,0,1,0
1582811320187,3107787,0,1,0
1582811320287,3108459,0,1,0
1582811320387,3109142,0,1,0
1582811320487,3110241,0,1,0
1582811320587,3111570,0,1,0
1582811320687,3112396,0,1,0
1582811320787,3110629,0,1,0
1582811320887,3108960,0,1,0
1582811320987,3108034,0,1,0
1582811321087,3107390,0,1,0
1582811321187,3107189,0,1,0
1582811321288,3107702,0,1,0
1582811321387,3108457,0,1,0
1582811321488,3109387,0,1,0
1582811321589,3110745,0,1,0
1582811321688,3111860,0,1,0
1582811321788,3111414,0,1,0
1582811321889,3110153,0,1,0
1582811321988,3109419,0,1,0
1582811322088,3108659,0,1,0
1582811322189,3108410,0,1,0
1582811322289,3108879,0,1,0
1582811322389,3109857,0,1,0
1582811322488,3111246,0,1,0
1582811322588,3112415,0,1,0
1582811322688,3113613,0,1,0
1582811322789,3114185,0,1,0
1582811322888,3113120,0,1,0
1582811322988,3112258,0,1,0
1582811323088,3112016,0,1,0
1582811323188,3111668,0,1,0
1582811323289,3112041,0,1,0
1582811323389,3113024,0,1,0
1582811323489,3114064,0,1,0
1582811323589,3115145,0,1,0
1582811323689,3116557,0,1,0
1582811323789,3118219,0,1,0
1582811323889,3118604,0,1,0
1582811323989,3117886,0,1,0
1582811324089,3117401,0,1,0
1582811324189,3117297,0,1,0
1582811324290,3117284,0,1,0
1582811324389,3117853,0,1,0
1582811324489,3118511,0,1,0
1582811324590,3119606,0,1,0
1582811324690,3120525,0,1,0
1582811324790,3121706,0,1,0
1582811324890,3122474,0,1,0
1582811324990,3121745,0,1,0
1582811325090,3120713,0,1,0
1582811325191,3119927,0,1,0
1582811325291,3119714,0,1,0
1582811325391,3119753,0,1,0
1582811325491,3120113,0,1,0
1582811325591,3120463,0,1,0
1582811325691,3121051,0,1,0
1582811325791,3122033,0,1,0
1582811325891,3122840,0,1,0
1582811325990,3123230,0,1,0
1582811326091,3121936,0,1,0
1582811326190,3121280,0,1,0
1582811326291,3120910,0,1,0
1582811326391,3120592,0,1,0
1582811326491,3120365,0,1,0
1582811326591,3120662,0,1,0
1582811326691,3121097,0,1,0
1582811326791,3121909,0,1,0
1582811326891,3122538,0,1,0
1582811326991,3123421,0,1,0
1582811327091,3122714,0,1,0
1582811327191,3122124,0,1,0
1582811327292,3121587,0,1,0
1582811327391,3121103,0,1,0
1582811327491,3121108,0,1,0
1582811327592,3121331,0,1,0
1582811327691,3121904,0,1,0
1582811327791,3122507,0,1,0
1582811327892,3123276,0,1,0
1582811327991,3124011,0,1,0
1582811328092,3124589,0,1,0
1582811328192,3123409,0,1,0
1582811328292,3122497,0,1,0
1582811328392,3121905,0,1,0
1582811328492,3121264,0,1,0
1582811328593,3121131,0,1,0
1582811328695,3121345,0,1,0
1582811328793,3121882,0,1,0
1582811328895,3122374,0,1,0
1582811328992,3123164,0,1,0
1582811329093,3124315,0,1,0
1582811329193,3123974,0,1,0
1582811329293,3123177,0,1,0
1582811329395,3122272,0,1,0
1582811329495,3121815,0,1,0
1582811329593,3121631,0,1,0
1582811329693,3121472,0,1,0
1582811329793,3121855,0,1,0
1582811329893,3122349,0,1,0
1582811329993,3123083,0,1,0
1582811330093,3123741,0,1,0
1582811330193,3124356,0,1,0
1582811330294,3122817,0,1,0
1582811330393,3121591,0,1,0
1582811330493,3120713,0,1,0
1582811330594,3120039,0,1,0
1582811330696,3119541,0,1,0
1582811330794,3119668,0,1,0
1582811330894,3119804,0,1,0
1582811330994,3119968,0,1,0
1582811331094,3120502,0,1,0
1582811331194,3120903,0,1,0
1582811331294,3120263,0,1,0
1582811331396,3118725,0,1,0
1582811331494,3117751,0,1,0
1582811331594,3117276,0,1,0
1582811331694,3116491,0,1,0
1582811331795,3115991,0,1,0
1582811331894,3116046,0,1,0
1582811331994,3117610,0,1,0
1582811332096,3119747,0,1,0
1582811332195,3121159,0,1,0
1582811332296,3122129,0,1,0
1582811332396,3120463,0,1,0
1582811332495,3118639,0,1,0
1582811332595,3117416,0,1,0
1582811332696,3116310,0,1,0
1582811332796,3115589,0,1,0
1582811332895,3115511,0,1,0
1582811332996,3115748,0,1,0
1582811333095,3116274,0,1,0
1582811333195,3117229,0,1,0
1582811333296,3118040,0,1,0
1582811333395,3116849,0,1,0
1582811333496,3115089,0,1,0
1582811333596,3113535,0,1,0
1582811333695,3112517,0,1,0
1582811333795,3112089,0,1,0
1582811333897,3111918,0,1,0
1582811333996,3112071,0,1,0
1582811334096,3112800,0,1,0
1582811334196,3113488,0,1,0
1582811334296,3114154,0,1,0
1582811334396,3114236,0,1,0
1582811334496,3112250,0,1,0
1582811334596,3110203,0,1,0
1582811334696,3108735,0,1,0
1582811334797,3107587,0,1,0
1582811334896,3106604,0,1,0
1582811334996,3106341,0,1,0
1582811335097,3106416,0,1,0
1582811335196,3106939,0,1,0
1582811335297,3107720,0,1,0
1582811335398,3108766,0,1,0
1582811335497,3109213,0,1,0
1582811335597,3107419,0,1,0
1582811335698,3105577,0,1,0
1582811335798,3104619,0,1,0
1582811335897,3103587,0,1,0
1582811335998,3103216,0,1,0
1582811336098,3103367,0,1,0
1582811336197,3103564,0,1,0
1582811336298,3104060,0,1,0
1582811336398,3104984,0,1,0
1582811336498,3106112,0,1,0
1582811336598,3106560,0,1,0
1582811336698,3105109,0,1,0
1582811336798,3103668,0,1,0
1582811336898,3102925,0,1,0
1582811336998,3102505,0,1,0
1582811337098,3102515,0,1,0
1582811337198,3102980,0,1,0
1582811337298,3103614,0,1,0
1582811337398,3104712,0,1,0
1582811337498,3105784,0,1,0
1582811337598,3107018,0,1,0
1582811337698,3106553,0,1,0
1582811337799,3105372,0,1,0
1582811337898,3104568,0,1,0
1582811337998,3104217,0,1,0
1582811338099,3104194,0,1,0
1582811338198,3104708,0,1,0
1582811338299,3105437,0,1,0
1582811338399,3106322,0,1,0
1582811338499,3107738,0,1,0
1582811338599,3109247,0,1,0
1582811338699,3110896,0,1,0
1582811338799,3110855,0,1,0
1582811338899,3109913,0,1,0
1582811338999,3109436,0,1,0
1582811339099,3109074,0,1,0
1582811339200,3109050,0,1,0
1582811339300,3109479,0,1,0
1582811339400,3109670,0,1,0
1582811339500,3110411,0,1,0
1582811339600,3111186,0,1,0
1582811339700,3111876,0,1,0
1582811339799,3112876,0,1,0
1582811339900,3112822,0,1,0
1582811340000,3111817,0,1,0
1582811340100,3111213,0,1,0
1582811340200,3110828,0,1,0
1582811340300,3110573,0,1,0
1582811340400,3111080,0,1,0
1582811340500,3111567,0,1,0
1582811340601,3112337,0,1,0
1582811340700,3113182,0,1,0
1582811340801,3114289,0,1,0
1582811340900,3115517,0,1,0
1582811341000,3115337,0,1,0
1582811341101,3114426,0,1,0
1582811341200,3113704,0,1,0
1582811341301,3113309,0,1,0
1582811341401,3112961,0,1,0
1582811341501,3113170,0,1,0
1582811341601,3113632,0,1,0
1582811341701,3114247,0,1,0
1582811341801,3115016,0,1,0
1582811341901,3115892,0,1,0
1582811342001,3116774,0,1,0
1582811342101,3116100,0,1,0
1582811342201,3115371,0,1,0
1582811342302,3114695,0,1,0
1582811342402,3114359,0,1,0
1582811342501,3114360,0,1,0
1582811342602,3114485,0,1,0
1582811342702,3115086,0,1,0
1582811342802,3115788,0,1,0
1582811342902,3116478,0,1,0
1582811343002,3117485,0,1,0
1582811343102,3117567,0,1,0
1582811343203,3116197,0,1,0
1582811343303,3115160,0,1,0
1582811343405,3114355,0,1,0
1582811343503,3113792,0,1,0
1582811343603,3113477,0,1,0
1582811343702,3113759,0,1,0
1582811343802,3113981,0,1,0
1582811343907,3114485,0,1,0
1582811344002,3115183,0,1,0
1582811344103,3116002,0,1,0
1582811344202,3115136,0,1,0
1582811344303,3113416,0,1,0
1582811344406,3112168,0,1,0
1582811344504,3111229,0,1,0
1582811344602,3110598,0,1,0
1582811344703,3110826,0,1,0
1582811344802,3111231,0,1,0
1582811344902,3111887,0,1,0
1582811345002,3112345,0,1,0
1582811345102,3113046,0,1,0
1582811345202,3113355,0,1,0
1582811345305,3111752,0,1,0
1582811345404,3110213,0,1,0
1582811345503,3109116,0,1,0
1582811345605,3108264,0,1,0
1582811345705,3107698,0,1,0
1582811345804,3107821,0,1,0
1582811345905,3107980,0,1,0
1582811346008,3108524,0,1,0
1582811346104,3109104,0,1,0
1582811346205,3109914,0,1,0
1582811346305,3109527,0,1,0
1582811346405,3107477,0,1,0
1582811346505,3105968,0,1,0
1582811346605,3104830,0,1,0
1582811346705,3104107,0,1,0
1582811346805,3103930,0,1,0
1582811346905,3104034,0,1,0
1582811347005,3104538,0,1,0
1582811347105,3105066,0,1,0
1582811347205,3106002,0,1,0
1582811347305,3106144,0,1,0
1582811347405,3104608,0,1,0
1582811347505,3103279,0,1,0
1582811347605,3102523,0,1,0
1582811347705,3101810,0,1,0
1582811347805,3101710,0,1,0
1582811347905,3102008,0,1,0
1582811348005,3102648,0,1,0
1582811348105,3103396,0,1,0
1582811348205,3104267,0,1,0
1582811348306,3105184,0,1,0
1582811348405,3103613,0,1,0
1582811348505,3101896,0,1,0
1582811348606,3100659,0,1,0
1582811348706,3099806,0,1,0
1582811348806,3099449,0,1,0
1582811348907,3099726,0,1,0
1582811349006,3100399,0,1,0
1582811349106,3101304,0,1,0
1582811349206,3102181,0,1,0
1582811349306,3103441,0,1,0
1582811349406,3103733,0,1,0
1582811349507,3101730,0,1,0
1582811349606,3100174,0,1,0
1582811349706,3099171,0,1,0
1582811349807,3098611,0,1,0
1582811349907,3098436,0,1,0
1582811350007,3099026,0,1,0
1582811350108,3099781,0,1,0
1582811350207,3100480,0,1,0
1582811350307,3101498,0,1,0
1582811350407,3102679,0,1,0
1582811350507,3102084,0,1,0
1582811350607,3100098,0,1,0
1582811350708,3098714,0,1,0
1582811350809,3097892,0,1,0
1582811350908,3097457,0,1,0
1582811351008,3097480,0,1,0
1582811351108,3097816,0,1,0
1582811351208,3098657,0,1,0
1582811351308,3099670,0,1,0
1582811351408,3100907,0,1,0
1582811351509,3100465,0,1,0
1582811351608,3098622,0,1,0
1582811351707,3097585,0,1,0
1582811351807,3097077,0,1,0
1582811351908,3096701,0,1,0
1582811352008,3096940,0,1,0
1582811352108,3097414,0,1,0
1582811352208,3098236,0,1,0
1582811352308,3099058,0,1,0
1582811352408,3100431,0,1,0
1582811352508,3099748,0,1,0
1582811352608,3097681,0,1,0
1582811352708,3096052,0,1,0
1582811352809,3095051,0,1,0
1582811352908,3094637,0,1,0
1582811353008,3094998,0,1,0
1582811353109,3095340,0,1,0
1582811353208,3096172,0,1,0
1582811353309,3097267,0,1,0
1582811353410,3098520,0,1,0
1582811353510,3099160,0,1,0
1582811353609,3097392,0,1,0
1582811353710,3095707,0,1,0
1582811353809,3094723,0,1,0
1582811353910,3094031,0,1,0
1582811354010,3093982,0,1,0
1582811354110,3094103,0,1,0
1582811354210,3094910,0,1,0
1582811354309,3095781,0,1,0
1582811354409,3096863,0,1,0
1582811354509,3098273,0,1,0
1582811354610,3097679,0,1,0
1582811354710,3095826,0,1,0
1582811354810,3094570,0,1,0
1582811354910,3093802,0,1,0
1582811355010,3093325,0,1,0
1582811355110,3093717,0,1,0
1582811355210,3094402,0,1,0
1582811355310,3095359,0,1,0
1582811355410,3096500,0,1,0
1582811355510,3097539,0,1,0
1582811355610,3098722,0,1,0
1582811355710,3097611,0,1,0
1582811355811,3096162,0,1,0
1582811355911,3095505,0,1,0
1582811356010,3095065,0,1,0
1582811356111,3095026,0,1,0
1582811356210,3095537,0,1,0
1582811356311,3096366,0,1,0
1582811356411,3097604,0,1,0
1582811356511,3098759,0,1,0
1582811356611,3100285,0,1,0
1582811356711,3101127,0,1,0
1582811356812,3100106,0,1,0
1582811356912,3099409,0,1,0
1582811357012,3099257,0,1,0
1582811357112,3099917,0,1,0
1582811357212,3101164,0,1,0
1582811357312,3102888,0,1,0
1582811357412,3104955,0,1,0
1582811357512,3106945,0,1,0
1582811357612,3108689,0,1,0
1582811357712,3110671,0,1,0
1582811357811,3110390,0,1,0
1582811357912,3109164,0,1,0
1582811358012,3108398,0,1,0
1582811358112,3108084,0,1,0
1582811358213,3108212,0,1,0
1582811358312,3108563,0,1,0
1582811358412,3109381,0,1,0
1582811358524,3110220,0,1,0
1582811358612,3111176,0,1,0
1582811358712,3112906,0,1,0
1582811358813,3114520,0,1,0
1582811358914,3115474,0,1,0
1582811359012,3114349,0,1,0
1582811359113,3113390,0,1,0
1582811359213,3112546,0,1,0
1582811359312,3112123,0,1,0
1582811359415,3112135,0,1,0
1582811359513,3112379,0,1,0
1582811359613,3113098,0,1,0
1582811359713,3113889,0,1,0
1582811359813,3114848,0,1,0
1582811359913,3116018,0,1,0
1582811360013,3116805,0,1,0
1582811360113,3115742,0,1,0
1582811360213,3114771,0,1,0
1582811360314,3114301,0,1,0
1582811360414,3113919,0,1,0
1582811360514,3113972,0,1,0
1582811360614,3114161,0,1,0
1582811360717,3114646,0,1,0
1582811360815,3115373,0,1,0
1582811360915,3116283,0,1,0
1582811361014,3117234,0,1,0
1582811361114,3118216,0,1,0
1582811361215,3117688,0,1,0
1582811361315,3117051,0,1,0
1582811361416,3116762,0,1,0
1582811361515,3116699,0,1,0
1582811361615,3116838,0,1,0
1582811361715,3117522,0,1,0
1582811361815,3118317,0,1,0
1582811361914,3119216,0,1,0
1582811362017,3120308,0,1,0
1582811362115,3121272,0,1,0
1582811362215,3121481,0,1,0
1582811362316,3120313,0,1,0
1582811362415,3119721,0,1,0
1582811362515,3120589,0,1,0
1582811362615,3120540,0,1,0
1582811362715,3119746,0,1,0
1582811362815,3119683,0,1,0
1582811362915,3120009,0,1,0
1582811363015,3120532,0,1,0
1582811363115,3121410,0,1,0
1582811363215,3122039,0,1,0
1582811363315,3120906,0,1,0
1582811363415,3119477,0,1,0
1582811363516,3118527,0,1,0
1582811363616,3117828,0,1,0
1582811363715,3117090,0,1,0
1582811363815,3116777,0,1,0
1582811363917,3116959,0,1,0
1582811364016,3117292,0,1,0
1582811364116,3117837,0,1,0
1582811364217,3118516,0,1,0
1582811364317,3118348,0,1,0
1582811364416,3116711,0,1,0
1582811364517,3115240,0,1,0
1582811364617,3114171,0,1,0
1582811364716,3113373,0,1,0
1582811364817,3112799,0,1,0
1582811364916,3112829,0,1,0
1582811365016,3113154,0,1,0
1582811365117,3113447,0,1,0
1582811365217,3113991,0,1,0
1582811365316,3114303,0,1,0
1582811365417,3113280,0,1,0
1582811365517,3111517,0,1,0
1582811365617,3110276,0,1,0
1582811365717,3109203,0,1,0
1582811365817,3108465,0,1,0
1582811365917,3108331,0,1,0
1582811366017,3108496,0,1,0
1582811366117,3108785,0,1,0
1582811366217,3109222,0,1,0
1582811366317,3109822,0,1,0
1582811366417,3109569,0,1,0
1582811366517,3107662,0,1,0
1582811366618,3106396,0,1,0
1582811366718,3105598,0,1,0
1582811366818,3104919,0,1,0
1582811366918,3104599,0,1,0
1582811367018,3105002,0,1,0
1582811367120,3105359,0,1,0
1582811367220,3106253,0,1,0
1582811367318,3106867,0,1,0
1582811367419,3107677,0,1,0
1582811367519,3106260,0,1,0
1582811367619,3104902,0,1,0
1582811367719,3104238,0,1,0
1582811367819,3103893,0,1,0
1582811367919,3103845,0,1,0
1582811368019,3104221,0,1,0
1582811368120,3105050,0,1,0
1582811368219,3106084,0,1,0
1582811368319,3107705,0,1,0
1582811368419,3109555,0,1,0
1582811368519,3110390,0,1,0
1582811368618,3108723,0,1,0
1582811368719,3107544,0,1,0
1582811368819,3106998,0,1,0
1582811368920,3106465,0,1,0
1582811369019,3106564,0,1,0
1582811369119,3107460,0,1,0
1582811369219,3108257,0,1,0
1582811369320,3109067,0,1,0
1582811369420,3110467,0,1,0
1582811369519,3112165,0,1,0
1582811369620,3112674,0,1,0
1582811369719,3111469,0,1,0
1582811369819,3110473,0,1,0
1582811369920,3109976,0,1,0
1582811370020,3109607,0,1,0
1582811370120,3109655,0,1,0
1582811370220,3109799,0,1,0
1582811370320,3110279,0,1,0
1582811370420,3110996,0,1,0
1582811370520,3112029,0,1,0
1582811370620,3113364,0,1,0
1582811370720,3112830,0,1,0
1582811370821,3111247,0,1,0
1582811370920,3109932,0,1,0
1582811371021,3109458,0,1,0
1582811371121,3109114,0,1,0
1582811371222,3109375,0,1,0
1582811371321,3110060,0,1,0
1582811371422,3111037,0,1,0
1582811371522,3112120,0,1,0
1582811371621,3113398,0,1,0
1582811371722,3113926,0,1,0
1582811371822,3113056,0,1,0
1582811371922,3112796,0,1,0
1582811372021,3113061,0,1,0
1582811372121,3113035,0,1,0
1582811372221,3113247,0,1,0
1582811372322,3113798,0,1,0
1582811372421,3114459,0,1,0
1582811372521,3114941,0,1,0
1582811372622,3115786,0,1,0
1582811372722,3116670,0,1,0
1582811372822,3115739,0,1,0
1582811372922,3113628,0,1,0
1582811373022,3112008,0,1,0
1582811373122,3110983,0,1,0
1582811373222,3109803,0,1,0
1582811373322,3109633,0,1,0
1582811373422,3109793,0,1,0
1582811373522,3110136,0,1,0
1582811373622,3110781,0,1,0
1582811373722,3111493,0,1,0
1582811373823,3112179,0,1,0
1582811373924,3110479,0,1,0
1582811374022,3107955,0,1,0
1582811374123,3105929,0,1,0
1582811374223,3104626,0,1,0
1582811374322,3103688,0,1,0
1582811374423,3103453,0,1,0
1582811374524,3103917,0,1,0
1582811374624,3104447,0,1,0
1582811374726,3105374,0,1,0
1582811374824,3106385,0,1,0
1582811374924,3107200,0,1,0
1582811375024,3106366,0,1,0
1582811375124,3104998,0,1,0
1582811375223,3104257,0,1,0
1582811375324,3103455,0,1,0
1582811375426,3103087,0,1,0
1582811375524,3103192,0,1,0
1582811375624,3103476,0,1,0
1582811375724,3103944,0,1,0
1582811375824,3104728,0,1,0
1582811375924,3105657,0,1,0
1582811376024,3105398,0,1,0
1582811376124,3103704,0,1,0
1582811376224,3102416,0,1,0
1582811376324,3101844,0,1,0
1582811376424,3101241,0,1,0
1582811376525,3101125,0,1,0
1582811376624,3101348,0,1,0
1582811376727,3101877,0,1,0
1582811376825,3102536,0,1,0
1582811376924,3103492,0,1,0
1582811377024,3103817,0,1,0
1582811377125,3101946,0,1,0
1582811377225,3100118,0,1,0
1582811377325,3099143,0,1,0
1582811377425,3098401,0,1,0
1582811377525,3097927,0,1,0
1582811377625,3098297,0,1,0
1582811377725,3098689,0,1,0
1582811377825,3099444,0,1,0
1582811377925,3100255,0,1,0
1582811378026,3101336,0,1,0
1582811378126,3100569,0,1,0
1582811378226,3098478,0,1,0
1582811378326,3097215,0,1,0
1582811378426,3096292,0,1,0
1582811378526,3095792,0,1,0
1582811378626,3095845,0,1,0
1582811378726,3096273,0,1,0
1582811378826,3096756,0,1,0
1582811378927,3097609,0,1,0
1582811379027,3098501,0,1,0
1582811379126,3099486,0,1,0
1582811379226,3098002,0,1,0
1582811379326,3096160,0,1,0
1582811379426,3094919,0,1,0
1582811379527,3094084,0,1,0
1582811379626,3093686,0,1,0
1582811379726,3093759,0,1,0
1582811379827,3094657,0,1,0
1582811379926,3095495,0,1,0
1582811380026,3096439,0,1,0
1582811380127,3097614,0,1,0
1582811380227,3098826,0,1,0
1582811380327,3097534,0,1,0
1582811380427,3096162,0,1,0
1582811380527,3095296,0,1,0
1582811380627,3094620,0,1,0
1582811380727,3094463,0,1,0
1582811380827,3094823,0,1,0
1582811380927,3095551,0,1,0
1582811381027,3096289,0,1,0
1582811381127,3097448,0,1,0
1582811381228,3098645,0,1,0
1582811381328,3099560,0,1,0
1582811381428,3098177,0,1,0
1582811381528,3096571,0,1,0
1582811381628,3095625,0,1,0
1582811381728,3094752,0,1,0
1582811381828,3094315,0,1,0
1582811381929,3094613,0,1,0
1582811382029,3094942,0,1,0
1582811382129,3095713,0,1,0
1582811382229,3096618,0,1,0
1582811382331,3097549,0,1,0
1582811382430,3097698,0,1,0
1582811382530,3095295,0,1,0
1582811382629,3094220,0,1,0
1582811382729,3093678,0,1,0
1582811382830,3093308,0,1,0
1582811382929,3093596,0,1,0
1582811383029,3094222,0,1,0
1582811383129,3095104,0,1,0
1582811383229,3096066,0,1,0
1582811383329,3097413,0,1,0
1582811383429,3098049,0,1,0
1582811383529,3096564,0,1,0
1582811383629,3095157,0,1,0
1582811383729,3094035,0,1,0
1582811383829,3093303,0,1,0
1582811383930,3092940,0,1,0
1582811384029,3093047,0,1,0
1582811384129,3093525,0,1,0
1582811384229,3094336,0,1,0
1582811384330,3095306,0,1,0
1582811384429,3096563,0,1,0
1582811384529,3096645,0,1,0
1582811384630,3094913,0,1,0
1582811384730,3093918,0,1,0
1582811384830,3093265,0,1,0
1582811384930,3092734,0,1,0
1582811385030,3092899,0,1,0
1582811385130,3093456,0,1,0
1582811385231,3094146,0,1,0
1582811385331,3095113,0,1,0
1582811385430,3095868,0,1,0
1582811385531,3097098,0,1,0
1582811385631,3096552,0,1,0
1582811385731,3095354,0,1,0
1582811385831,3094637,0,1,0
1582811385931,3094325,0,1,0
1582811386030,3094149,0,1,0
1582811386131,3094438,0,1,0
1582811386231,3094990,0,1,0
1582811386331,3095763,0,1,0
1582811386431,3096622,0,1,0
1582811386531,3097598,0,1,0
1582811386631,3098573,0,1,0
1582811386731,3097544,0,1,0
1582811386831,3096097,0,1,0
1582811386931,3095259,0,1,0
1582811387031,3094559,0,1,0
1582811387131,3094360,0,1,0
1582811387231,3094705,0,1,0
1582811387332,3095271,0,1,0
1582811387432,3096221,0,1,0
1582811387531,3097129,0,1,0
1582811387632,3098385,0,1,0
1582811387731,3098946,0,1,0
1582811387832,3097426,0,1,0
1582811387932,3096422,0,1,0
1582811388032,3095631,0,1,0
1582811388132,3094852,0,1,0
1582811388233,3094457,0,1,0
1582811388332,3094804,0,1,0
1582811388432,3095369,0,1,0
1582811388532,3096104,0,1,0
1582811388633,3097038,0,1,0
1582811388734,3097880,0,1,0
1582811388833,3097416,0,1,0
1582811388935,3095633,0,1,0
1582811389033,3094470,0,1,0
1582811389133,3093420,0,1,0
1582811389233,3092808,0,1,0
1582811389333,3092643,0,1,0
1582811389436,3092950,0,1,0
1582811389534,3093605,0,1,0
1582811389633,3094215,0,1,0
1582811389733,3095191,0,1,0
1582811389833,3096225,0,1,0
1582811389933,3094744,0,1,0
1582811390033,3093004,0,1,0
1582811390133,3091974,0,1,0
1582811390233,3091400,0,1,0
1582811390334,3090741,0,1,0
1582811390434,3090722,0,1,0
1582811390533,3091225,0,1,0
1582811390634,3091651,0,1,0
1582811390736,3092329,0,1,0
1582811390834,3093311,0,1,0
1582811390934,3093365,0,1,0
1582811391034,3091631,0,1,0
1582811391134,3090194,0,1,0
1582811391235,3089308,0,1,0
1582811391334,3088793,0,1,0
1582811391435,3088420,0,1,0
1582811391535,3088527,0,1,0
1582811391635,3089057,0,1,0
1582811391734,3089658,0,1,0
1582811391835,3090447,0,1,0
1582811391934,3091158,0,1,0
1582811392034,3089456,0,1,0
1582811392135,3087681,0,1,0
1582811392235,3086464,0,1,0
1582811392335,3085475,0,1,0
1582811392436,3084947,0,1,0
1582811392535,3085086,0,1,0
1582811392635,3085133,0,1,0
1582811392736,3085606,0,1,0
1582811392837,3086499,0,1,0
1582811392936,3087197,0,1,0
1582811393036,3085228,0,1,0
1582811393136,3083438,0,1,0
1582811393235,3082256,0,1,0
1582811393336,3081665,0,1,0
1582811393436,3081297,0,1,0
1582811393536,3081489,0,1,0
1582811393636,3082003,0,1,0
1582811393735,3082868,0,1,0
1582811393836,3084067,0,1,0
1582811393937,3085009,0,1,0
1582811394036,3083666,0,1,0
1582811394136,3081738,0,1,0
1582811394236,3080086,0,1,0
1582811394336,3079346,0,1,0
1582811394436,3078977,0,1,0
1582811394536,3079096,0,1,0
1582811394636,3079738,0,1,0
1582811394736,3080721,0,1,0
1582811394837,3081775,0,1,0
1582811394936,3083141,0,1,0
1582811395036,3083346,0,1,0
1582811395137,3081182,0,1,0
1582811395237,3079694,0,1,0
1582811395337,3078934,0,1,0
1582811395437,3078304,0,1,0
1582811395537,3078427,0,1,0
1582811395637,3078899,0,1,0
1582811395738,3079859,0,1,0
1582811395838,3081002,0,1,0
1582811395938,3082338,0,1,0
1582811396038,3083605,0,1,0
1582811396138,3082125,0,1,0
1582811396238,3080251,0,1,0
1582811396338,3079280,0,1,0
1582811396438,3078648,0,1,0
1582811396538,3078320,0,1,0
1582811396638,3078660,0,1,0
1582811396738,3079222,0,1,0
1582811396838,3080170,0,1,0
1582811396938,3081260,0,1,0
1582811397038,3082137,0,1,0
1582811397138,3081126,0,1,0
1582811397238,3079491,0,1,0
1582811397338,3078639,0,1,0
1582811397438,3078404,0,1,0
1582811397538,3078409,0,1,0
1582811397638,3079085,0,1,0
1582811397738,3079797,0,1,0
1582811397838,3080969,0,1,0
1582811397938,3082207,0,1,0
1582811398038,3083754,0,1,0
1582811398139,3083482,0,1,0
1582811398239,3081596,0,1,0
1582811398339,3080775,0,1,0
1582811398439,3080265,0,1,0
1582811398539,3080219,0,1,0
1582811398639,3080644,0,1,0
1582811398739,3081598,0,1,0
1582811398839,3082605,0,1,0
1582811398940,3083936,0,1,0
1582811399039,3085289,0,1,0
1582811399139,3086623,0,1,0
1582811399240,3085762,0,1,0
1582811399340,3084554,0,1,0
1582811399440,3083961,0,1,0
1582811399540,3083828,0,1,0
1582811399640,3084050,0,1,0
1582811399741,3084798,0,1,0
1582811399841,3085930,0,1,0
1582811399941,3087002,0,1,0
1582811400040,3088516,0,1,0
1582811400140,3089753,0,1,0
1582811400240,3090408,0,1,0
1582811400340,3089247,0,1,0
1582811400440,3088289,0,1,0
1582811400540,3088122,0,1,0
1582811400640,3088015,0,1,0
1582811400740,3088297,0,1,0
1582811400841,3089210,0,1,0
1582811400940,3090212,0,1,0
1582811401040,3091241,0,1,0
1582811401141,3092303,0,1,0
1582811401241,3093714,0,1,0
1582811401340,3093100,0,1,0
1582811401441,3092052,0,1,0
1582811401541,3091501,0,1,0
1582811401641,3091113,0,1,0
1582811401741,3090986,0,1,0
1582811401841,3091329,0,1,0
1582811401941,3092030,0,1,0
1582811402041,3092975,0,1,0
1582811402141,3094121,0,1,0
1582811402241,3095308,0,1,0
1582811402342,3094593,0,1,0
1582811402442,3093538,0,1,0
1582811402541,3092755,0,1,0
1582811402642,3092377,0,1,0
1582811402742,3092338,0,1,0
1582811402842,3092641,0,1,0
1582811402943,3093216,0,1,0
1582811403042,3093955,0,1,0
1582811403142,3095014,0,1,0
1582811403243,3096100,0,1,0
1582811403343,3096006,0,1,0
1582811403442,3094438,0,1,0
1582811403544,3093162,0,1,0
1582811403643,3092374,0,1,0
1582811403743,3091807,0,1,0
1582811403842,3091669,0,1,0
1582811403945,3092103,0,1,0
1582811404042,3092637,0,1,0
1582811404143,3093540,0,1,0
1582811404243,3094613,0,1,0
1582811404343,3095251,0,1,0
1582811404443,3093749,0,1,0
1582811404543,3092185,0,1,0
1582811404643,3091087,0,1,0
1582811404746,3090261,0,1,0
1582811404843,3089947,0,1,0
1582811404943,3090142,0,1,0
1582811405043,3090515,0,1,0
1582811405143,3091112,0,1,0
1582811405244,3091986,0,1,0
1582811405344,3092753,0,1,0
1582811405446,3092048,0,1,0
1582811405544,3090092,0,1,0
1582811405644,3088539,0,1,0
1582811405744,3087780,0,1,0
1582811405844,3087197,0,1,0
1582811405944,3086857,0,1,0
1582811406044,3087297,0,1,0
1582811406144,3087897,0,1,0
1582811406244,3088738,0,1,0
1582811406345,3089644,0,1,0
1582811406445,3089240,0,1,0
1582811406545,3087596,0,1,0
1582811406645,3086589,0,1,0
1582811406745,3085995,0,1,0
1582811406845,3085531,0,1,0
1582811406945,3085860,0,1,0
1582811407045,3086525,0,1,0
1582811407145,3087347,0,1,0
1582811407245,3088396,0,1,0
1582811407345,3089549,0,1,0
1582811407445,3089862,0,1,0
1582811407545,3088114,0,1,0
1582811407645,3086896,0,1,0
1582811407745,3086202,0,1,0
1582811407845,3085714,0,1,0
1582811407945,3085879,0,1,0
1582811408045,3086438,0,1,0
1582811408145,3087126,0,1,0
1582811408245,3088144,0,1,0
1582811408346,3089311,0,1,0
1582811408445,3090335,0,1,0
1582811408546,3089346,0,1,0
1582811408646,3087935,0,1,0
1582811408746,3086998,0,1,0
1582811408846,3086412,0,1,0
1582811408947,3086327,0,1,0
1582811409046,3086787,0,1,0
1582811409146,3087535,0,1,0
1582811409246,3088564,0,1,0
1582811409346,3089855,0,1,0
1582811409446,3091442,0,1,0
1582811409547,3091993,0,1,0
1582811409646,3090738,0,1,0
1582811409746,3089877,0,1,0
1582811409847,3089531,0,1,0
1582811409947,3089395,0,1,0
1582811410047,3089761,0,1,0
1582811410148,3090108,0,1,0
1582811410248,3091038,0,1,0
1582811410347,3092017,0,1,0
1582811410448,3093212,0,1,0
1582811410547,3094057,0,1,0
1582811410647,3092825,0,1,0
1582811410748,3092032,0,1,0
1582811410847,3091565,0,1,0
1582811410947,3091361,0,1,0
1582811411047,3091454,0,1,0
1582811411147,3092118,0,1,0
1582811411248,3093314,0,1,0
1582811411348,3094319,0,1,0
1582811411448,3095516,0,1,0
1582811411548,3096812,0,1,0
1582811411648,3096130,0,1,0
1582811411748,3094830,0,1,0
1582811411848,3094023,0,1,0
1582811411948,3093776,0,1,0
1582811412048,3093727,0,1,0
1582811412148,3094220,0,1,0
1582811412249,3095210,0,1,0
1582811412348,3096058,0,1,0
1582811412448,3097261,0,1,0
1582811412548,3098458,0,1,0
1582811412648,3098999,0,1,0
1582811412748,3097741,0,1,0
1582811412849,3096523,0,1,0
1582811412948,3095655,0,1,0
1582811413048,3095161,0,1,0
1582811413149,3094932,0,1,0
1582811413249,3095224,0,1,0
1582811413349,3095781,0,1,0
1582811413450,3096577,0,1,0
1582811413550,3097294,0,1,0
1582811413649,3098174,0,1,0
1582811413750,3097246,0,1,0
1582811413850,3095554,0,1,0
1582811413950,3094707,0,1,0
1582811414050,3093675,0,1,0
1582811414151,3093091,0,1,0
1582811414251,3093125,0,1,0
1582811414351,3093425,0,1,0
1582811414450,3093779,0,1,0
1582811414550,3094507,0,1,0
1582811414650,3094795,0,1,0
1582811414750,3093329,0,1,0
1582811414850,3091660,0,1,0
1582811414950,3090889,0,1,0
1582811415050,3090043,0,1,0
1582811415150,3090079,0,1,0
1582811415251,3090592,0,1,0
1582811415350,3091282,0,1,0
1582811415450,3092335,0,1,0
1582811415550,3093594,0,1,0
1582811415650,3094761,0,1,0
1582811415750,3094525,0,1,0
1582811415851,3092959,0,1,0
1582811415950,3092128,0,1,0
1582811416050,3091465,0,1,0
1582811416151,3091079,0,1,0
1582811416251,3091339,0,1,0
1582811416350,3091873,0,1,0
1582811416451,3092468,0,1,0
1582811416551,3093602,0,1,0
1582811416651,3094824,0,1,0
1582811416751,3095816,0,1,0
1582811416851,3095008,0,1,0
1582811416951,3093824,0,1,0
1582811417052,3092987,0,1,0
1582811417152,3092705,0,1,0
1582811417252,3093033,0,1,0
1582811417352,3093626,0,1,0
1582811417454,3094612,0,1,0
1582811417552,3095609,0,1,0
1582811417652,3096891,0,1,0
1582811417752,3097914,0,1,0
1582811417852,3097828,0,1,0
1582811417952,3096736,0,1,0
1582811418052,3095953,0,1,0
1582811418152,3095280,0,1,0
1582811418253,3095070,0,1,0
1582811418352,3095258,0,1,0
1582811418452,3095425,0,1,0
1582811418552,3095885,0,1,0
1582811418653,3096474,0,1,0
1582811418752,3097456,0,1,0
1582811418853,3097881,0,1,0
1582811418954,3096760,0,1,0
1582811419052,3096005,0,1,0
1582811419153,3095666,0,1,0
1582811419253,3095352,0,1,0
1582811419353,3095592,0,1,0
1582811419455,3095870,0,1,0
1582811419553,3096486,0,1,0
1582811419653,3097343,0,1,0
1582811419753,3098317,0,1,0
1582811419853,3099167,0,1,0
1582811419953,3098304,0,1,0
1582811420053,3097162,0,0,0
1582811420153,3096638,0,0,0
1582811420254,3096635,0,0,0
1582811420354,3096675,0,0,0
1582811420454,3097646,0,0,0
1582811420554,3098523,0,0,0
1582811420654,3099237,0,0,0
1582811420757,3100163,0,0,0
1582811420855,3101013,0,0,0
1582811420955,3100579,0,0,0
1582811421054,3098702,0,0,0
1582811421155,3096769,0,0,0
1582811421255,3095528,0,0,0
1582811421355,3094372,0,0,0
1582811421456,3093565,0,0,0
1582811421555,3093291,0,0,0
1582811421655,3093407,0,0,0
1582811421754,3093783,0,0,0
1582811421855,3094420,0,0,0
1582811421954,3095054,0,0,0
1582811422055,3093973,0,0,0
1582811422155,3092374,0,0,0
1582811422255,3091540,0,0,0
1582811422355,3090874,0,0,0
1582811422455,3090465,0,0,0
1582811422555,3090370,0,0,0
1582811422655,3090757,0,0,0
1582811422755,3091203,0,0,0
1582811422855,3091833,0,0,0
1582811422955,3092583,0,0,0
1582811423055,3091199,0,0,0
1582811423155,3089480,0,0,0
1582811423255,3087967,0,0,0
1582811423356,3087003,0,0,0
1582811423456,3086386,0,0,0
1582811423556,3086087,0,0,0
1582811423656,3086113,0,0,0
1582811423756,3086388,0,0,0
1582811423856,3084359,0,0,0
1582811423958,3082290,0,0,0
1582811424057,3079526,0,0,0
1582811424157,3073518,0,0,0
1582811424258,3069238,0,0,0
1582811424358,3064416,0,0,0
1582811424458,3058963,0,0,0
1582811424558,3055380,0,0,0
1582811424657,3054034,0,0,0
1582811424758,3052271,0,0,0
1582811424859,3050701,0,0,0
1582811424958,3049356,0,0,0
1582811425058,3047457,0,0,0
1582811425158,3046498,0,0,0
1582811425258,3047319,0,0,0
1582811425358,3047847,0,0,0
1582811425459,3047318,0,0,0
1582811425558,3045827,0,0,0
1582811425658,3042733,0,0,0
1582811425759,3040027,0,0,0
1582811425858,3036765,0,0,0
1582811425958,3033477,0,0,0
1582811426059,3031021,0,0,0
1582811426158,3028982,0,0,0
1582811426259,3027735,0,0,0
1582811426359,3028390,0,0,0
1582811426459,3029764,0,0,0
1582811426559,3032888,0,0,0
1582811426659,3036745,0,0,0
1582811426759,3038643,0,0,0
1582811426859,3039299,0,0,0
1582811426959,3040735,0,0,0
1582811427059,3042291,0,0,0
1582811427159,3043688,0,0,0
1582811427260,3045376,0,0,0
1582811427359,3046864,0,0,0
1582811427460,3049484,0,0,0
1582811427560,3052480,0,0,0
1582811427660,3055052,0,0,0
1582811427760,3057564,0,0,0
1582811427860,3059033,0,0,0
1582811427960,3058656,0,0,0
1582811428060,3057162,0,0,0
1582811428161,3054404,0,0,0
1582811428260,3051022,0,0,0
1582811428360,3048422,0,0,0
1582811428461,3046979,0,0,0
1582811428560,3045305,0,0,0
1582811428660,3043828,0,0,0
1582811428761,3043563,0,0,0
1582811428860,3044559,0,0,0
1582811428961,3046535,0,0,0
1582811429061,3050445,0,0,0
1582811429161,3052262,0,0,0
1582811429261,3050975,0,0,0
1582811429361,3048811,0,0,0
1582811429461,3047667,0,0,0
1582811429561,3048753,0,0,0
1582811429661,3049924,0,0,0
1582811429761,3050576,0,0,0
1582811429861,3050371,0,0,0
1582811429962,3050242,0,0,0
1582811430061,3049524,0,0,0
1582811430161,3049777,0,0,0
1582811430262,3050464,0,0,0
1582811430361,3051126,0,0,0
1582811430461,3052371,0,0,0
1582811430562,3053654,0,0,0
1582811430661,3055144,0,0,0
1582811430762,3055823,0,0,0
1582811430862,3056880,0,0,0
1582811430962,3058194,0,0,0
1582811431062,3059948,0,0,0
1582811431162,3061702,0,0,0
1582811431263,3063165,0,0,0
1582811431362,3064033,0,0,0
1582811431465,3065157,0,0,0
1582811431563,3066490,0,0,0
1582811431663,3067669,0,0,0
1582811431763,3068751,0,0,0
1582811431863,3069685,0,0,0
1582811431963,3069527,0,0,0
1582811432063,3069531,0,0,0
1582811432162,3069868,0,0,0
1582811432263,3070406,0,0,0
1582811432363,3070872,0,0,0
1582811432463,3071541,0,0,0
1582811432563,3071568,0,0,0
1582811432663,3070854,0,0,0
1582811432765,3070347,0,0,0
1582811432863,3070009,0,0,0
1582811432963,3070408,0,0,0
1582811433063,3070866,0,0,0
1582811433163,3071268,0,0,0
1582811433265,3071782,0,0,0
1582811433363,3071639,0,0,0
1582811433466,3072545,0,0,0
1582811433564,3073566,0,0,0
1582811433663,3074325,0,0,0
1582811433763,3074947,0,0,0
1582811433864,3075950,0,0,0
1582811433966,3076095,0,0,0
1582811434064,3075007,0,0,0
1582811434164,3074565,0,0,0
1582811434264,3073854,0,0,0
1582811434365,3073499,0,0,0
1582811434464,3073376,0,0,0
1582811434564,3074163,0,0,0
1582811434664,3074749,0,0,0
1582811434765,3075464,0,0,0
1582811434866,3076688,0,0,0
1582811434965,3077233,0,0,0
1582811435065,3078251,0,0,0
1582811435165,3079591,0,0,0
1582811435265,3080768,0,0,0
1582811435365,3080202,0,0,0
1582811435465,3080126,0,0,0
1582811435565,3080771,0,0,0
1582811435665,3081706,0,0,0
1582811435765,3082509,0,0,0
1582811435865,3083284,0,0,0
1582811435965,3083626,0,0,0
1582811436065,3083920,0,0,0
1582811436165,3084651,0,0,0
1582811436265,3085803,0,0,0
1582811436365,3086495,0,0,0
1582811436465,3087476,0,0,0
1582811436565,3088453,0,0,0
1582811436665,3088861,0,0,0
1582811436766,3088889,0,0,0
1582811436866,3089968,0,0,0
1582811436965,3090557,0,0,0
1582811437066,3090446,0,0,0
1582811437166,3089608,0,0,0
1582811437266,3087943,0,0,0
1582811437366,3085782,0,0,0
1582811437466,3084404,0,0,0
1582811437566,3083374,0,0,0
1582811437666,3082693,0,0,0
1582811437766,3082121,0,0,0
1582811437866,3081522,0,0,0
1582811437966,3080283,0,0,0
1582811438066,3079970,0,0,0
1582811438167,3080419,0,0,0
1582811438267,3082140,0,0,0
1582811438367,3086189,0,0,0
1582811438467,3088922,0,0,0
1582811438567,3088975,0,0,0
1582811438667,3088551,0,0,0
1582811438767,3088705,0,0,0
1582811438867,3089636,0,0,0
1582811438968,3091094,0,0,0
1582811439067,3092133,0,0,0
1582811439167,3092124,0,0,0
1582811439268,3091538,0,0,0
1582811439367,3091631,0,0,0
1582811439467,3092330,0,0,0
1582811439568,3092748,0,0,0
1582811439667,3093090,0,0,0
1582811439767,3093449,0,0,0
1582811439868,3092996,0,0,0
1582811439967,3092796,0,0,0
1582811440067,3093852,0,0,0
1582811440168,3094321,0,0,0
1582811440268,3095511,0,0,0
1582811440368,3095906,0,0,0
1582811440468,3095205,0,0,0
1582811440568,3094484,0,0,0
1582811440668,3094412,0,0,0
1582811440768,3095345,0,0,0
1582811440868,3096236,0,0,0
1582811440968,3097447,0,0,0
1582811441068,3099611,0,0,0
1582811441168,3100795,0,0,0
1582811441269,3100970,0,0,0
1582811441369,3101686,0,0,0
1582811441469,3102509,0,0,0
1582811441569,3103384,0,0,0
1582811441670,3104227,0,0,0
1582811441769,3105209,0,0,0
1582811441869,3105440,0,0,0
1582811441969,3105116,0,0,0
1582811442069,3105327,0,0,0
1582811442169,3105823,0,0,0
1582811442270,3106194,0,0,0
1582811442369,3106758,0,0,0
1582811442470,3107515,0,0,0
1582811442570,3107534,0,0,0
1582811442669,3106924,0,0,0
1582811442770,3106816,0,0,0
1582811442870,3106969,0,0,0
1582811442969,3106985,0,0,0
1582811443070,3107168,0,0,0
1582811443170,3107330,0,0,0
1582811443270,3107150,0,0,0
1582811443370,3106600,0,0,0
1582811443470,3106670,0,0,0
1582811443570,3107015,0,0,0
1582811443670,3107201,0,0,0
1582811443770,3108093,0,0,0
1582811443870,3109129,0,0,0
1582811443971,3109183,0,0,0
1582811444070,3107930,0,0,0
1582811444170,3106497,0,0,0
1582811444271,3105003,0,0,0
1582811444371,3103568,0,0,0
1582811444471,3101299,0,0,0
1582811444571,3099023,0,0,0
1582811444671,3098137,0,0,0
1582811444771,3098408,0,0,0
1582811444871,3099900,0,0,0
1582811444971,3101058,0,0,0
1582811445071,3101760,0,0,0
1582811445171,3102295,0,0,0
1582811445272,3102980,0,0,0
1582811445372,3104158,0,0,0
1582811445471,3104479,0,0,0
1582811445572,3104234,0,0,0
1582811445672,3103901,0,0,0
1582811445772,3102655,0,0,0
1582811445872,3101636,0,0,0
1582811445973,3101729,0,0,0
1582811446074,3102044,0,0,0
1582811446174,3102485,0,0,0
1582811446273,3102368,0,0,0
1582811446373,3102107,0,0,0
1582811446474,3102670,0,0,0
1582811446573,3103130,0,0,0
1582811446673,3103663,0,0,0
1582811446774,3104858,0,0,0
1582811446873,3105861,0,0,0
1582811446972,3106793,0,0,0
1582811447073,3107069,0,0,0
1582811447172,3107576,0,0,0
1582811447274,3107957,0,0,0
1582811447372,3107730,0,0,0
1582811447472,3107566,0,0,0
1582811447573,3107527,0,0,0
1582811447673,3109040,0,0,0
1582811447773,3110957,0,0,0
1582811447873,3111889,0,0,0
1582811447973,3112761,0,0,0
1582811448073,3112740,0,0,0
1582811448176,3112093,0,0,0
1582811448274,3112154,0,0,0
1582811448373,3112738,0,0,0
1582811448473,3113651,0,0,0
1582811448574,3114074,0,0,0
1582811448673,3113475,0,0,0
1582811448775,3113054,0,0,0
1582811448874,3113009,0,0,0
1582811448975,3113266,0,0,0
1582811449074,3114588,0,0,0
1582811449174,3115810,0,0,0
1582811449274,3115875,0,0,0
1582811449374,3114639,0,0,0
1582811449475,3113529,0,0,0
1582811449574,3112790,0,0,0
1582811449674,3113521,0,0,0
1582811449774,3114848,0,0,0
1582811449874,3113582,0,0,0
1582811449975,3111008,0,0,0
1582811450075,3110028,0,2,0
1582811450175,3110955,0,2,0
1582811450275,3111730,0,2,0
1582811450375,3109608,0,2,0
1582811450475,3107853,0,2,0
1582811450575,3109341,0,2,0
1582811450676,3111041,0,2,0
1582811450775,3112823,0,2,0
1582811450875,3114506,0,2,0
1582811450975,3115675,0,2,0
1582811451075,3116851,0,2,0
1582811451175,3117751,0,2,0
1582811451276,3117832,0,2,0
1582811451375,3116703,0,2,0
1582811451475,3115925,0,2,0
1582811451576,3115761,0,2,0
1582811451676,3115877,0,2,0
1582811451775,3116504,0,2,0
1582811451876,3116849,0,2,0
1582811451975,3116049,0,2,0
1582811452076,3112489,0,2,0
1582811452177,3108382,0,2,0
1582811452276,3107385,0,2,0
1582811452376,3105538,0,2,0
1582811452477,3103895,0,2,0
1582811452576,3103140,0,2,0
1582811452676,3102332,0,2,0
1582811452777,3099451,0,2,0
1582811452877,3096870,0,2,0
1582811452976,3095485,0,2,0
1582811453077,3093746,0,2,0
1582811453177,3092905,0,2,0
1582811453277,3092247,0,2,0
1582811453377,3091745,0,2,0
1582811453477,3090020,0,2,0
1582811453577,3087308,0,2,0
1582811453677,3085372,0,2,0
1582811453777,3083969,0,2,0
1582811453877,3082939,0,2,0
1582811453978,3082350,0,2,0
1582811454077,3082194,0,2,0
1582811454177,3082201,0,2,0
1582811454278,3082346,0,2,0
1582811454377,3082178,0,2,0
1582811454477,3080255,0,2,0
1582811454577,3078679,0,2,0
1582811454677,3077308,0,2,0
1582811454778,3076214,0,2,0
1582811454878,3075895,0,2,0
1582811454977,3075790,0,2,0
1582811455077,3076208,0,2,0
1582811455178,3076537,0,2,0
1582811455278,3077718,0,2,0
1582811455378,3077816,0,2,0
1582811455478,3076995,0,2,0
1582811455579,3076580,0,2,0
1582811455678,3076516,0,2,0
1582811455778,3076585,0,2,0
1582811455879,3076926,0,2,0
1582811455978,3077661,0,2,0
1582811456079,3078566,0,2,0
1582811456179,3079417,0,2,0
1582811456279,3079912,0,2,0
1582811456379,3079629,0,2,0
1582811456479,3079501,0,2,0
1582811456579,3080076,0,2,0
1582811456679,3080412,0,2,0
1582811456779,3081019,0,2,0
1582811456879,3082072,0,2,0
1582811456979,3082987,0,2,0
1582811457079,3083035,0,2,0
1582811457179,3082448,0,2,0
1582811457280,3082106,0,2,0
1582811457379,3081840,0,2,0
1582811457479,3081961,0,2,0
1582811457580,3082309,0,2,0
1582811457679,3082721,0,2,0
1582811457779,3083161,0,2,0
1582811457880,3082617,0,2,0
1582811457979,3081736,0,2,0
1582811458079,3081100,0,2,0
1582811458180,3080630,0,2,0
1582811458280,3080409,0,2,0
1582811458380,3080400,0,2,0
1582811458480,3080484,0,2,0
1582811458580,3080577,0,2,0
1582811458680,3080914,0,2,0
1582811458781,3080295,0,2,0
1582811458880,3079283,0,2,0
1582811458981,3078666,0,2,0
1582811459080,3077950,0,2,0
1582811459180,3077222,0,2,0
1582811459280,3076845,0,2,0
1582811459381,3076866,0,2,0
1582811459481,3076625,0,2,0
1582811459581,3076784,0,2,0
1582811459681,3076433,0,2,0
1582811459781,3075476,0,2,0
1582811459881,3074813,0,2,0
1582811459981,3074519,0,2,0
1582811460082,3074260,0,2,0
1582811460182,3074391,0,2,0
1582811460282,3074594,0,2,0
1582811460381,3075023,0,2,0
1582811460481,3074963,0,2,0
1582811460581,3074011,0,2,0
1582811460681,3073127,0,2,0
1582811460782,3072458,0,2,0
1582811460882,3072026,0,2,0
1582811460981,3071864,0,2,0
1582811461081,3072063,0,2,0
1582811461182,3072205,0,2,0
1582811461282,3071013,0,2,0
1582811461382,3069397,0,2,0
1582811461482,3068479,0,2,0
1582811461582,3067542,0,2,0
1582811461682,3067020,0,2,0
1582811461782,3067071,0,2,0
1582811461882,3067629,0,2,0
1582811461982,3067172,0,2,0
1582811462083,3065606,0,2,0
1582811462182,3064285,0,2,0
1582811462282,3063081,0,2,0
1582811462383,3061765,0,2,0
1582811462483,3060659,0,2,0
1582811462583,3059955,0,2,0
1582811462683,3059708,0,2,0
1582811462785,3059159,0,2,0
1582811462883,3057532,0,2,0
1582811462983,3054922,0,2,0
1582811463083,3053057,0,2,0
1582811463183,3051667,0,2,0
1582811463284,3050833,0,2,0
1582811463383,3050161,0,2,0
1582811463486,3049719,0,2,0
1582811463584,3049530,0,2,0
1582811463684,3049490,0,2,0
1582811463784,3049031,0,2,0
1582811463884,3046904,0,2,0
1582811463986,3045173,0,2,0
1582811464084,3043946,0,2,0
1582811464184,3043135,0,2,0
1582811464284,3042834,0,2,0
1582811464384,3042980,0,2,0
1582811464484,3043250,0,2,0
1582811464584,3043778,0,2,0
1582811464684,3043504,0,2,0
1582811464785,3041978,0,2,0
1582811464884,3041077,0,2,0
1582811464984,3040714,0,2,0
1582811465085,3040691,0,2,0
1582811465184,3041278,0,2,0
1582811465285,3042434,0,2,0
1582811465385,3044467,0,2,0
1582811465485,3046435,0,2,0
1582811465586,3047844,0,2,0
1582811465685,3048179,0,2,0
1582811465785,3047810,0,2,0
1582811465885,3047849,0,2,0
1582811465985,3048474,0,2,0
1582811466085,3049874,0,2,0
1582811466185,3051763,0,2,0
1582811466285,3053552,0,2,0
1582811466385,3055352,0,2,0
1582811466485,3057524,0,2,0
1582811466586,3059226,0,2,0
1582811466686,3060111,0,2,0
1582811466786,3060540,0,2,0
1582811466886,3061249,0,2,0
1582811466985,3062410,0,2,0
1582811467086,3063698,0,2,0
1582811467186,3064849,0,2,0
1582811467286,3066016,0,2,0
1582811467386,3067545,0,2,0
1582811467486,3068812,0,2,0
1582811467586,3069228,0,2,0
1582811467686,3069118,0,2,0
1582811467786,3069718,0,2,0
1582811467886,3070676,0,2,0
1582811467986,3071579,0,2,0
1582811468086,3072277,0,2,0
1582811468186,3072963,0,2,0
1582811468287,3073697,0,2,0
1582811468387,3073724,0,2,0
1582811468487,3073571,0,2,0
1582811468587,3073525,0,2,0
1582811468687,3073351,0,2,0
1582811468787,3073269,0,2,0
1582811468887,3073380,0,2,0
1582811468988,3073398,0,2,0
1582811469087,3072502,0,2,0
1582811469187,3071350,0,2,0
1582811469287,3070695,0,2,0
1582811469387,3069979,0,2,0
1582811469487,3069605,0,2,0
1582811469588,3069404,0,2,0
1582811469687,3069236,0,2,0
1582811469787,3069300,0,2,0
1582811469888,3069153,0,2,0
1582811469988,3067729,0,2,0
1582811470088,3065986,0,2,0
1582811470189,3064650,0,2,0
1582811470288,3063121,0,2,0
1582811470388,3062213,0,2,0
1582811470488,3061617,0,2,0
1582811470588,3060337,0,2,0
1582811470688,3059640,0,2,0
1582811470789,3060385,0,2,0
1582811470889,3062317,0,2,0
1582811470988,3063198,0,2,0
1582811471088,3062713,0,2,0
1582811471188,3062414,0,2,0
1582811471289,3062996,0,2,0
1582811471389,3064339,0,2,0
1582811471489,3065936,0,2,0
1582811471589,3067213,0,2,0
1582811471689,3068240,0,2,0
1582811471789,3069439,0,2,0
1582811471889,3070916,0,2,0
1582811471989,3071556,0,2,0
1582811472089,3072041,0,2,0
1582811472189,3072356,0,2,0
1582811472289,3072367,0,2,0
1582811472389,3072481,0,2,0
1582811472490,3072840,0,2,0
1582811472590,3073458,0,2,0
1582811472689,3074280,0,2,0
1582811472790,3074684,0,2,0
1582811472890,3075220,0,2,0
1582811472989,3075354,0,2,0
1582811473090,3075134,0,2,0
1582811473190,3075059,0,2,0
1582811473290,3074674,0,2,0
1582811473390,3074823,0,2,0
1582811473491,3075164,0,2,0
1582811473590,3075512,0,2,0
1582811473690,3076120,0,2,0
1582811473791,3076554,0,2,0
1582811473890,3077183,0,2,0
1582811473991,3077625,0,2,0
1582811474091,3077616,0,2,0
1582811474191,3077552,0,2,0
1582811474291,3077550,0,2,0
1582811474391,3077520,0,2,0
1582811474490,3077475,0,2,0
1582811474591,3077722,0,2,0
1582811474691,3078222,0,2,0
1582811474791,3078649,0,2,0
1582811474891,3079026,0,2,0
1582811474991,3079182,0,2,0
1582811475091,3079019,0,2,0
1582811475191,3078618,0,2,0
1582811475292,3078474,0,2,0
1582811475391,3078028,0,2,0
1582811475491,3078002,0,2,0
1582811475592,3077744,0,2,0
1582811475691,3077560,0,2,0
1582811475791,3077693,0,2,0
1582811475892,3077484,0,2,0
1582811475992,3076763,0,2,0
1582811476092,3076340,0,2,0
1582811476192,3075708,0,2,0
1582811476292,3075104,0,2,0
1582811476392,3074743,0,2,0
1582811476492,3074613,0,2,0
1582811476592,3074447,0,2,0
1582811476692,3074301,0,2,0
1582811476794,3073646,0,2,0
1582811476893,3072969,0,2,0
1582811476994,3072162,0,2,0
1582811477094,3071402,0,2,0
1582811477194,3070571,0,2,0
1582811477295,3070197,0,2,0
1582811477394,3069980,0,2,0
1582811477495,3068989,0,2,0
1582811477594,3067982,0,2,0
1582811477694,3066876,0,2,0
1582811477794,3065660,0,2,0
1582811477894,3064778,0,2,0
1582811477994,3063996,0,2,0
1582811478093,3063517,0,2,0
1582811478209,3062897,0,2,0
1582811478294,3061382,0,2,0
1582811478393,3059944,0,2,0
1582811478493,3058167,0,2,0
1582811478594,3056927,0,2,0
1582811478694,3055548,0,2,0
1582811478796,3054615,0,2,0
1582811478894,3053648,0,2,0
1582811478995,3053224,0,2,0
1582811479094,3051859,0,2,0
1582811479194,3049549,0,2,0
1582811479296,3047217,0,2,0
1582811479394,3045139,0,2,0
1582811479496,3043471,0,2,0
1582811479594,3042045,0,2,0
1582811479694,3041272,0,2,0
1582811479794,3040533,0,2,0
1582811479894,3039994,0,2,0
1582811479994,3039808,0,2,0
1582811480095,3038301,0,2,0
1582811480194,3035853,0,2,0
1582811480295,3033607,0,2,0
1582811480395,3031806,0,2,0
1582811480495,3030344,0,2,0
1582811480595,3029598,0,2,0
1582811480695,3029119,0,2,0
1582811480795,3028916,0,2,0
1582811480895,3029016,0,2,0
1582811480995,3029401,0,2,0
1582811481095,3028762,0,2,0
1582811481195,3026578,0,2,0
1582811481296,3024946,0,2,0
1582811481395,3023252,0,2,0
1582811481496,3022052,0,2,0
1582811481596,3021454,0,2,0
1582811481696,3021881,0,2,0
1582811481795,3022695,0,2,0
1582811481896,3023911,0,2,0
1582811481996,3025084,0,2,0
1582811482096,3023813,0,2,0
1582811482196,3021226,0,2,0
1582811482296,3018918,0,2,0
1582811482396,3017321,0,2,0
1582811482496,3015892,0,2,0
1582811482596,3015008,0,2,0
1582811482696,3014288,0,2,0
1582811482797,3013996,0,2,0
1582811482896,3013716,0,2,0
1582811482996,3013545,0,2,0
1582811483096,3010404,0,2,0
1582811483196,3007151,0,2,0
1582811483297,3005093,0,2,0
1582811483397,3003295,0,2,0
1582811483497,3001944,0,2,0
1582811483597,3001565,0,2,0
1582811483697,3001968,0,2,0
1582811483797,3003234,0,2,0
1582811483897,3005233,0,2,0
1582811483998,3007407,0,2,0
1582811484097,3006600,0,2,0
1582811484197,3006138,0,2,0
1582811484298,3006558,0,2,0
1582811484398,3007253,0,2,0
1582811484498,3008987,0,2,0
1582811484598,3010499,0,2,0
1582811484698,3011085,0,2,0
1582811484798,3010344,0,2,0
1582811484898,3008046,0,2,0
1582811484998,3005717,0,2,0
1582811485097,3004273,0,2,0
1582811485198,3002939,0,2,0
1582811485298,3002407,0,2,0
1582811485398,3002915,0,2,0
1582811485498,3003428,0,2,0
1582811485598,3003693,0,2,0
1582811485698,3001121,0,2,0
1582811485798,2998103,0,2,0
1582811485898,2996073,0,2,0
1582811485998,2994313,0,2,0
1582811486098,2993848,0,2,0
1582811486198,2994753,0,2,0
1582811486299,2995718,0,2,0
1582811486399,2995045,0,2,0
1582811486498,2991784,0,2,0
1582811486599,2990605,0,2,0
1582811486699,2991322,0,2,0
1582811486799,2992573,0,2,0
1582811486899,2994702,0,2,0
1582811486999,2997041,0,2,0
1582811487100,2999483,0,2,0
1582811487199,3001207,0,2,0
1582811487299,2999346,0,2,0
1582811487399,2998330,0,2,0
1582811487499,2998310,0,2,0
1582811487600,2998683,0,2,0
1582811487700,2999721,0,2,0
1582811487800,3000909,0,2,0
1582811487900,3002654,0,2,0
1582811488000,3004468,0,2,0
1582811488100,3006301,0,2,0
1582811488200,3005162,0,2,0
1582811488300,3003816,0,2,0
1582811488400,3003265,0,2,0
1582811488500,3003482,0,2,0
1582811488600,3004048,0,2,0
1582811488700,3005193,0,2,0
1582811488801,3006461,0,2,0
1582811488900,3007989,0,2,0
1582811489001,3009570,0,2,0
1582811489101,3010619,0,2,0
1582811489200,3008919,0,2,0
1582811489301,3007994,0,2,0
1582811489401,3007811,0,2,0
1582811489501,3008011,0,2,0
1582811489601,3008621,0,2,0
1582811489701,3009855,0,2,0
1582811489801,3011454,0,2,0
1582811489901,3012955,0,2,0
1582811490001,3014626,0,2,0
1582811490101,3013660,0,2,0
1582811490201,3012823,0,2,0
1582811490302,3012062,0,2,0
1582811490401,3011869,0,2,0
1582811490501,3012036,0,2,0
1582811490601,3013065,0,2,0
1582811490701,3014061,0,2,0
1582811490802,3015428,0,2,0
1582811490902,3017041,0,2,0
1582811491002,3017975,0,2,0
1582811491102,3017041,0,2,0
1582811491202,3016361,0,2,0
1582811491302,3016319,0,2,0
1582811491402,3016641,0,2,0
1582811491503,3017503,0,2,0
1582811491602,3018664,0,2,0
1582811491702,3019068,0,2,0
1582811491803,3019551,0,2,0
1582811491902,3021395,0,2,0
1582811492004,3021359,0,2,0
1582811492103,3017274,0,2,0
1582811492202,3014106,0,2,0
1582811492303,3011280,0,2,0
1582811492402,3010191,0,2,0
1582811492503,3010893,0,2,0
1582811492603,3012486,0,2,0
1582811492703,3013494,0,2,0
1582811492805,3013890,0,2,0
1582811492903,3014593,0,2,0
1582811493003,3013014,0,2,0
1582811493103,3012379,0,2,0
1582811493203,3012377,0,2,0
1582811493304,3012909,0,2,0
1582811493403,3013683,0,2,0
1582811493506,3015047,0,2,0
1582811493604,3016381,0,2,0
1582811493703,3017936,0,2,0
1582811493804,3018930,0,2,0
1582811493904,3018062,0,2,0
1582811494006,3017164,0,2,0
1582811494104,3016663,0,2,0
1582811494205,3017361,0,2,0
1582811494305,3019636,0,2,0
1582811494405,3023126,0,2,0
1582811494504,3025717,0,2,0
1582811494604,3027748,0,2,0
1582811494704,3031114,0,2,0
1582811494805,3032610,0,2,0
1582811494905,3032828,0,2,0
1582811495005,3033244,0,2,0
1582811495105,3033166,0,2,0
1582811495205,3033553,0,2,0
1582811495305,3033372,0,2,0
1582811495405,3032085,0,2,0
1582811495505,3031796,0,2,0
1582811495605,3031981,0,2,0
1582811495705,3033965,0,2,0
1582811495805,3034670,0,2,0
1582811495905,3033496,0,2,0
1582811496005,3030722,0,2,0
1582811496105,3029271,0,2,0
1582811496205,3028756,0,2,0
1582811496305,3028755,0,2,0
1582811496405,3029069,0,2,0
1582811496505,3030522,0,2,0
1582811496605,3031579,0,2,0
1582811496706,3031804,0,2,0
1582811496806,3030349,0,2,0
1582811496906,3027580,0,2,0
1582811497005,3024632,0,2,0
1582811497106,3023330,0,2,0
1582811497207,3023006,0,2,0
1582811497306,3023389,0,2,0
1582811497406,3024025,0,2,0
1582811497506,3024408,0,2,0
1582811497606,3024599,0,2,0
1582811497706,3023366,0,2,0
1582811497806,3023325,0,2,0
1582811497906,3022887,0,2,0
1582811498006,3022305,0,2,0
1582811498106,3023180,0,2,0
1582811498207,3024297,0,2,0
1582811498307,3025487,0,2,0
1582811498407,3026567,0,2,0
1582811498507,3026171,0,2,0
1582811498607,3025368,0,2,0
1582811498707,3025302,0,2,0
1582811498807,3024819,0,2,0
1582811498907,3024822,0,2,0
1582811499008,3025036,0,2,0
1582811499107,3025571,0,2,0
1582811499208,3026500,0,2,0
1582811499307,3025517,0,2,0
1582811499407,3024223,0,2,0
1582811499507,3023230,0,2,0
1582811499608,3022841,0,2,0
1582811499707,3022927,0,2,0
1582811499807,3023365,0,2,0
1582811499908,3023880,0,2,0
1582811500008,3024552,0,2,0
1582811500108,3025093,0,2,0
1582811500208,3026058,0,2,0
1582811500308,3025304,0,2,0
1582811500408,3023924,0,2,0
1582811500508,3023043,0,2,0
1582811500608,3022256,0,2,0
1582811500708,3022009,0,2,0
1582811500809,3022587,0,2,0
1582811500908,3023817,0,2,0
1582811501008,3025048,0,2,0
1582811501108,3026141,0,2,0
1582811501208,3027429,0,2,0
1582811501309,3028141,0,2,0
1582811501409,3027013,0,2,0
1582811501509,3026267,0,2,0
1582811501609,3025890,0,2,0
1582811501709,3025723,0,2,0
1582811501809,3026163,0,2,0
1582811501909,3026899,0,2,0
1582811502009,3027813,0,2,0
1582811502109,3028886,0,2,0
1582811502209,3030107,0,2,0
1582811502310,3031841,0,2,0
1582811502409,3031568,0,2,0
1582811502510,3031169,0,2,0
1582811502610,3031022,0,2,0
1582811502710,3031105,0,2,0
1582811502810,3031757,0,2,0
1582811502910,3032527,0,2,0
1582811503010,3033064,0,2,0
1582811503110,3033554,0,2,0
1582811503210,3034640,0,2,0
1582811503310,3035100,0,2,0
1582811503410,3034251,0,2,0
1582811503510,3033922,0,2,0
1582811503610,3033867,0,2,0
1582811503710,3033425,0,2,0
1582811503810,3033320,0,2,0
1582811503910,3033116,0,2,0
1582811504011,3033146,0,2,0
1582811504110,3033801,0,2,0
1582811504211,3032593,0,2,0
1582811504311,3031411,0,2,0
1582811504411,3030649,0,2,0
1582811504510,3030448,0,2,0
1582811504611,3030643,0,2,0
1582811504711,3031226,0,2,0
1582811504811,3031682,0,2,0
1582811504911,3032469,0,2,0
1582811505011,3033032,0,2,0
1582811505111,3031797,0,2,0
1582811505211,3030536,0,2,0
1582811505312,3029648,0,2,0
1582811505411,3029412,0,2,0
1582811505512,3029348,0,2,0
1582811505612,3029789,0,2,0
1582811505712,3030321,0,2,0
1582811505812,3030984,0,2,0
1582811505912,3031814,0,2,0
1582811506012,3032279,0,2,0
1582811506112,3031151,0,2,0
1582811506213,3030126,0,2,0
1582811506312,3029645,0,2,0
1582811506412,3029447,0,2,0
1582811506512,3029810,0,2,0
1582811506612,3030014,0,2,0
1582811506712,3030311,0,2,0
1582811506814,3030504,0,2,0
1582811506913,3031430,0,2,0
1582811507012,3033068,0,2,0
1582811507113,3033854,0,2,0
1582811507212,3033845,0,2,0
1582811507314,3035462,0,2,0
1582811507412,3037370,0,2,0
1582811507514,3038330,0,2,0
1582811507613,3039629,0,2,0
1582811507713,3040945,0,2,0
1582811507813,3042792,0,2,0
1582811507913,3044555,0,2,0
1582811508013,3046392,0,2,0
1582811508113,3047732,0,2,0
1582811508214,3047584,0,2,0
1582811508316,3047354,0,2,0
1582811508415,3047563,0,2,0
1582811508515,3048211,0,2,0
1582811508615,3048552,0,2,0
1582811508715,3047326,0,2,0
1582811508815,3044742,0,2,0
1582811508915,3045115,0,2,0
1582811509015,3044961,0,2,0
1582811509115,3042163,0,2,0
1582811509215,3040110,0,2,0
1582811509314,3039276,0,2,0
1582811509415,3038674,0,2,0
1582811509515,3039608,0,2,0
1582811509615,3042647,0,2,0
1582811509714,3046490,0,2,0
1582811509815,3051151,0,2,0
1582811509914,3055302,0,2,0
1582811510014,3058136,0,2,0
1582811510115,3061112,0,2,0
1582811510215,3063824,0,2,0
1582811510315,3065787,0,2,0
1582811510415,3067629,0,2,0
1582811510515,3069334,0,2,0
1582811510615,3070440,0,2,0
1582811510715,3071427,0,2,0
1582811510815,3070364,0,2,0
1582811510915,3068890,0,2,0
1582811511015,3067687,0,2,0
1582811511115,3066986,0,2,0
1582811511216,3066541,0,2,0
1582811511315,3066312,0,2,0
1582811511415,3066144,0,2,0
1582811511515,3066298,0,2,0
1582811511616,3066066,0,2,0
1582811511716,3063911,0,2,0
1582811511815,3061792,0,2,0
1582811511916,3060299,0,2,0
1582811512016,3058883,0,2,0
1582811512116,3058135,0,2,0
1582811512216,3057491,0,2,0
1582811512316,3057119,0,2,0
1582811512416,3057060,0,2,0
1582811512517,3057020,0,2,0
1582811512616,3055164,0,2,0
1582811512716,3053105,0,2,0
1582811512817,3051631,0,2,0
1582811512917,3050483,0,2,0
1582811513016,3049863,0,2,0
1582811513117,3051426,0,2,0
1582811513217,3054168,0,2,0
1582811513317,3054297,0,2,0
1582811513417,3054146,0,2,0
1582811513517,3052212,0,2,0
1582811513617,3050013,0,2,0
1582811513717,3048416,0,2,0
1582811513817,3046765,0,2,0
1582811513917,3045380,0,2,0
1582811514018,3044147,0,2,0
1582811514117,3043919,0,2,0
1582811514217,3045234,0,2,0
1582811514317,3046064,0,2,0
1582811514417,3044496,0,2,0
1582811514517,3043200,0,2,0
1582811514618,3042976,0,2,0
1582811514717,3043656,0,2,0
1582811514818,3045037,0,2,0
1582811514918,3047365,0,2,0
1582811515018,3049643,0,2,0
1582811515118,3053518,0,2,0
1582811515218,3057233,0,2,0
1582811515318,3058834,0,2,0
1582811515418,3059506,0,2,0
1582811515518,3060443,0,2,0
1582811515618,3061480,0,2,0
1582811515718,3062593,0,2,0
1582811515819,3063799,0,2,0
1582811515918,3065157,0,2,0
1582811516019,3066723,0,2,0
1582811516119,3068499,0,2,0
1582811516219,3068550,0,2,0
1582811516319,3068172,0,2,0
1582811516419,3068142,0,2,0
1582811516519,3068206,0,2,0
1582811516619,3068445,0,2,0
1582811516719,3069100,0,2,0
1582811516819,3070209,0,2,0
1582811516919,3071167,0,2,0
1582811517019,3071394,0,2,0
1582811517119,3070489,0,2,0
1582811517219,3069842,0,2,0
1582811517319,3069825,0,2,0
1582811517419,3069738,0,2,0
1582811517519,3070308,0,2,0
1582811517620,3071132,0,2,0
1582811517720,3072242,0,2,0
1582811517820,3073235,0,2,0
1582811517920,3072580,0,2,0
1582811518020,3071601,0,2,0
1582811518120,3071356,0,2,0
1582811518220,3071473,0,2,0
1582811518320,3071555,0,2,0
1582811518420,3071884,0,2,0
1582811518520,3072883,0,2,0
1582811518620,3074357,0,2,0
1582811518720,3076108,0,2,0
1582811518821,3077245,0,2,0
1582811518920,3076876,0,2,0
1582811519021,3076530,0,2,0
1582811519120,3076515,0,2,0
1582811519220,3076536,0,2,0
1582811519320,3077172,0,2,0
1582811519421,3077725,0,2,0
1582811519521,3078300,0,2,0
1582811519621,3079276,0,2,0
1582811519721,3080139,0,2,0
1582811519821,3080818,0,2,0
1582811519921,3080173,0,2,0
1582811520021,3079665,0,2,0
1582811520121,3079240,0,2,0
1582811520221,3079215,0,2,0
1582811520322,3079442,0,2,0
1582811520421,3080199,0,2,0
1582811520522,3080977,0,2,0
1582811520622,3081852,0,2,0
1582811520721,3083180,0,2,0
1582811520822,3084272,0,2,0
1582811520922,3084929,0,2,0
1582811521022,3084736,0,2,0
1582811521122,3084849,0,2,0
1582811521222,3084965,0,2,0
1582811521322,3085291,0,2,0
1582811521422,3085834,0,2,0
1582811521522,3086447,0,2,0
1582811521622,3087410,0,2,0
1582811521722,3088324,0,2,0
1582811521822,3089133,0,2,0
1582811521922,3089213,0,2,0
1582811522022,3088884,0,2,0
1582811522123,3088665,0,2,0
1582811522222,3088834,0,2,0
1582811522322,3088911,0,2,0
1582811522423,3089419,0,2,0
1582811522523,3090515,0,2,0
1582811522625,3091571,0,2,0
1582811522723,3092776,0,2,0
1582811522824,3092892,0,2,0
1582811522923,3090310,0,2,0
1582811523024,3086857,0,2,0
1582811523123,3083766,0,2,0
1582811523224,3080980,0,2,0
1582811523324,3078523,0,2,0
1582811523424,3075410,0,2,0
1582811523525,3072282,0,2,0
1582811523624,3070160,0,2,0
1582811523724,3068056,0,2,0
1582811523824,3066056,0,2,0
1582811523924,3066359,0,2,0
1582811524026,3067052,0,2,0
1582811524124,3067040,0,2,0
1582811524225,3066836,0,2,0
1582811524324,3067063,0,2,0
1582811524424,3067673,0,2,0
1582811524525,3068179,0,2,0
1582811524624,3068500,0,2,0
1582811524724,3067568,0,2,0
1582811524825,3066379,0,2,0
1582811524925,3065284,0,2,0
1582811525025,3065161,0,2,0
1582811525125,3064802,0,2,0
1582811525225,3064556,0,2,0
1582811525325,3064064,0,2,0
1582811525425,3063734,0,2,0
1582811525525,3062790,0,2,0
1582811525625,3061176,0,2,0
1582811525725,3061059,0,2,0
1582811525825,3062477,0,2,0
1582811525925,3063844,0,2,0
1582811526025,3064343,0,2,0
1582811526125,3064340,0,2,0
1582811526225,3064590,0,2,0
1582811526325,3064584,0,2,0
1582811526425,3064302,0,2,0
1582811526525,3062155,0,2,0
1582811526626,3060224,0,2,0
1582811526726,3058939,0,2,0
1582811526826,3057526,0,2,0
1582811526926,3056626,0,2,0
1582811527026,3056254,0,2,0
1582811527126,3055932,0,2,0
1582811527226,3056183,0,2,0
1582811527326,3056319,0,2,0
1582811527426,3056316,0,2,0
1582811527527,3054820,0,2,0
1582811527626,3053767,0,2,0
1582811527726,3052920,0,2,0
1582811527828,3052420,0,2,0
1582811527926,3052076,0,2,0
1582811528026,3052303,0,2,0
1582811528126,3052730,0,2,0
1582811528227,3053221,0,2,0
1582811528326,3054033,0,2,0
1582811528427,3054930,0,2,0
1582811528527,3054749,0,2,0
1582811528627,3053515,0,2,0
1582811528727,3052639,0,2,0
1582811528827,3052109,0,2,0
1582811528927,3051588,0,2,0
1582811529028,3052082,0,2,0
1582811529127,3054960,0,2,0
1582811529227,3058040,0,2,0
1582811529327,3059263,0,2,0
1582811529427,3060314,0,2,0
1582811529527,3061610,0,2,0
1582811529628,3061109,0,2,0
1582811529727,3060671,0,2,0
1582811529827,3060142,0,2,0
1582811529928,3058126,0,2,0
1582811530028,3054531,0,2,0
1582811530128,3052023,0,2,0
1582811530229,3049936,0,2,0
1582811530328,3048959,0,2,0
1582811530428,3049329,0,2,0
1582811530528,3049799,0,2,0
1582811530628,3048922,0,2,0
1582811530728,3048340,0,2,0
1582811530829,3048783,0,2,0
1582811530929,3049734,0,2,0
1582811531028,3051799,0,2,0
1582811531128,3054103,0,2,0
1582811531229,3057094,0,2,0
1582811531329,3057542,0,2,0
1582811531429,3054332,0,2,0
1582811531529,3051927,0,2,0
1582811531629,3050645,0,2,0
1582811531729,3050274,0,2,0
1582811531829,3051054,0,2,0
1582811531929,3052010,0,2,0
1582811532029,3054349,0,2,0
1582811532129,3057679,0,2,0
1582811532229,3060753,0,2,0
1582811532329,3060593,0,2,0
1582811532429,3060343,0,2,0
1582811532530,3059927,0,2,0
1582811532630,3060107,0,2,0
1582811532730,3060473,0,2,0
1582811532830,3061108,0,2,0
1582811532930,3062003,0,2,0
1582811533029,3062765,0,2,0
1582811533130,3063936,0,2,0
1582811533230,3064449,0,2,0
1582811533330,3063121,0,2,0
1582811533430,3062012,0,2,0
1582811533530,3061427,0,2,0
1582811533631,3060785,0,2,0
1582811533731,3060632,0,2,0
1582811533831,3060915,0,2,0
1582811533930,3061884,0,2,0
1582811534031,3062506,0,2,0
1582811534131,3063511,0,2,0
1582811534231,3064294,0,2,0
1582811534331,3063085,0,2,0
1582811534431,3061571,0,2,0
1582811534531,3060780,0,2,0
1582811534631,3060138,0,2,0
1582811534731,3059752,0,2,0
1582811534831,3060218,0,2,0
1582811534931,3060502,0,2,0
1582811535031,3057020,0,2,0
1582811535131,3053005,0,2,0
1582811535231,3050763,0,2,0
1582811535331,3048511,0,2,0
1582811535431,3046744,0,2,0
1582811535531,3045137,0,2,0
1582811535632,3042788,0,2,0
1582811535731,3040064,0,2,0
1582811535832,3038423,0,2,0
1582811535932,3037111,0,2,0
1582811536032,3035425,0,2,0
1582811536132,3034423,0,2,0
1582811536232,3032249,0,2,0
1582811536332,3029777,0,2,0
1582811536432,3028215,0,2,0
1582811536532,3027239,0,2,0
1582811536632,3026863,0,2,0
1582811536732,3027999,0,2,0
1582811536835,3029072,0,2,0
1582811536932,3028849,0,2,0
1582811537032,3028598,0,2,0
1582811537133,3026094,0,2,0
1582811537233,3022885,0,2,0
1582811537333,3019636,0,2,0
1582811537433,3017117,0,2,0
1582811537534,3015335,0,2,0
1582811537633,3014952,0,2,0
1582811537733,3015371,0,2,0
1582811537834,3015674,0,2,0
1582811537933,3015831,0,2,0
1582811538034,3014851,0,2,0
1582811538133,3012415,0,2,0
1582811538234,3010244,0,2,0
1582811538334,3008223,0,2,0
1582811538433,3006102,0,2,0
1582811538533,3004872,0,2,0
1582811538634,3003222,0,2,0
1582811538734,3001903,0,2,0
1582811538836,3000998,0,2,0
1582811538934,2999692,0,2,0
1582811539035,2997205,0,2,0
1582811539134,2995269,0,2,0
1582811539235,2994089,0,2,0
1582811539334,2994045,0,2,0
1582811539434,2993986,0,2,0
1582811539536,2994627,0,2,0
1582811539634,2995685,0,2,0
1582811539734,2997697,0,2,0
1582811539836,3000979,0,2,0
1582811539936,3011340,0,2,0
1582811540036,3016004,0,2,0
1582811540135,3019509,0,2,0
1582811540235,3022620,0,2,0
1582811540336,3025770,0,2,0
1582811540436,3028817,0,2,0
1582811540535,3031060,0,2,0
1582811540635,3033317,0,2,0
1582811540735,3033286,0,2,0
1582811540835,3033504,0,2,0
1582811540935,3034124,0,2,0
1582811541035,3035071,0,2,0
1582811541135,3036170,0,2,0
1582811541236,3037903,0,2,0
1582811541336,3039643,0,2,0
1582811541435,3041301,0,2,0
1582811541536,3041222,0,2,0
1582811541636,3041277,0,2,0
1582811541735,3041841,0,2,0
1582811541836,3042464,0,2,0
1582811541936,3043551,0,2,0
1582811542036,3044909,0,2,0
1582811542136,3045930,0,2,0
1582811542236,3046623,0,2,0
1582811542336,3046005,0,2,0
1582811542436,3045256,0,2,0
1582811542537,3043051,0,2,0
1582811542636,3039259,0,2,0
1582811542736,3035941,0,2,0
1582811542837,3033178,0,2,0
1582811542936,3029667,0,2,0
1582811543036,3026951,0,2,0
1582811543136,3026498,0,2,0
1582811543237,3027293,0,2,0
1582811543337,3027779,0,2,0
1582811543437,3027826,0,2,0
1582811543537,3027960,0,2,0
1582811543637,3027415,0,2,0
1582811543737,3025872,0,2,0
1582811543837,3024789,0,2,0
1582811543937,3024482,0,2,0
1582811544038,3024134,0,2,0
1582811544137,3024329,0,2,0
1582811544238,3024577,0,2,0
1582811544338,3024927,0,2,0
1582811544438,3024066,0,2,0
1582811544538,3022648,0,2,0
1582811544638,3022261,0,2,0
1582811544738,3022989,0,2,0
1582811544838,3024915,0,2,0
1582811544938,3026803,0,2,0
1582811545038,3028653,0,2,0
1582811545138,3030182,0,2,0
1582811545238,3031266,0,2,0
1582811545338,3032166,0,2,0
1582811545438,3034600,0,2,0
1582811545538,3036436,0,2,0
1582811545638,3037984,0,2,0
1582811545738,3039779,0,2,0
1582811545839,3041354,0,2,0
1582811545938,3042734,0,2,0
1582811546038,3042503,0,2,0
1582811546139,3042438,0,2,0
1582811546239,3042991,0,2,0
1582811546339,3043922,0,2,0
1582811546439,3044840,0,2,0
1582811546539,3045993,0,2,0
1582811546639,3047663,0,2,0
1582811546740,3049282,0,2,0
1582811546839,3049412,0,2,0
1582811546939,3049680,0,2,0
1582811547039,3050072,0,2,0
1582811547139,3050691,0,2,0
1582811547239,3051511,0,2,0
1582811547340,3052871,0,2,0
1582811547439,3054084,0,2,0
1582811547540,3055263,0,2,0
1582811547640,3056308,0,2,0
1582811547740,3056163,0,2,0
1582811547840,3055812,0,2,0
1582811547940,3055798,0,2,0
1582811548040,3056133,0,2,0
1582811548140,3056786,0,2,0
1582811548241,3057737,0,2,0
1582811548340,3058617,0,2,0
1582811548441,3059562,0,2,0
1582811548541,3060524,0,2,0
1582811548640,3060484,0,2,0
1582811548740,3060379,0,2,0
1582811548841,3060467,0,2,0
1582811548940,3060863,0,2,0
1582811549041,3060901,0,2,0
1582811549141,3061083,0,2,0
1582811549241,3061424,0,2,0
1582811549341,3062159,0,2,0
1582811549441,3062824,0,2,0
1582811549541,3062854,0,2,0
1582811549641,3062005,0,2,0
1582811549741,3061647,0,2,0
1582811549841,3061537,0,2,0
1582811549941,3061294,0,2,0
1582811550041,3061133,0,2,0
1582811550141,3061128,0,2,0
1582811550241,3061045,0,2,0
1582811550341,3061302,0,2,0
1582811550441,3060859,0,2,0
1582811550541,3059545,0,2,0
1582811550642,3058124,0,2,0
1582811550741,3057052,0,2,0
1582811550842,3056102,0,2,0
1582811550942,3055685,0,2,0
1582811551042,3055910,0,2,0
1582811551142,3055954,0,2,0
1582811551242,3056267,0,2,0
1582811551342,3057080,0,2,0
1582811551442,3057075,0,2,0
1582811551544,3055953,0,2,0
1582811551642,3055434,0,2,0
1582811551742,3055151,0,2,0
1582811551843,3055206,0,2,0
1582811551942,3055527,0,2,0
1582811552043,3055515,0,2,0
1582811552143,3055942,0,2,0
1582811552243,3056060,0,2,0
1582811552343,3056569,0,2,0
1582811552443,3055900,0,2,0
1582811552543,3055147,0,2,0
1582811552643,3054854,0,2,0
1582811552743,3054473,0,2,0
1582811552845,3054545,0,2,0
1582811552943,3055043,0,2,0
1582811553043,3055303,0,2,0
1582811553143,3055802,0,2,0
1582811553244,3055820,0,2,0
1582811553344,3054884,0,2,0
1582811553443,3054053,0,2,0
1582811553546,3053519,0,2,0
1582811553644,3052614,0,2,0
1582811553744,3050863,0,2,0
1582811553844,3050354,0,2,0
1582811553944,3049916,0,2,0
1582811554046,3048100,0,2,0
1582811554144,3046580,0,2,0
1582811554245,3045602,0,2,0
1582811554344,3044260,0,2,0
1582811554444,3043591,0,2,0
1582811554544,3043408,0,2,0
1582811554644,3044535,0,2,0
1582811554744,3045309,0,2,0
1582811554845,3046033,0,2,0
1582811554945,3046649,0,2,0
1582811555045,3045156,0,2,0
1582811555145,3042410,0,2,0
1582811555245,3039072,0,2,0
1582811555345,3036425,0,2,0
1582811555445,3038272,0,2,0
1582811555545,3040584,0,2,0
1582811555645,3038528,0,2,0
1582811555746,3035736,0,2,0
1582811555845,3035090,0,2,0
1582811555945,3036439,0,2,0
1582811556046,3039449,0,2,0
1582811556145,3045095,0,2,0
1582811556245,3051819,0,2,0
1582811556346,3058274,0,2,0
1582811556445,3063382,0,2,0
1582811556546,3065940,0,2,0
1582811556646,3066661,0,2,0
1582811556746,3066626,0,2,0
1582811556846,3066179,0,2,0
1582811556946,3065590,0,2,0
1582811557046,3065118,0,2,0
1582811557146,3064792,0,2,0
1582811557247,3064355,0,2,0
1582811557346,3062144,0,2,0
1582811557446,3059555,0,2,0
1582811557547,3057232,0,2,0
1582811557647,3055199,0,2,0
1582811557747,3053576,0,2,0
1582811557847,3052402,0,2,0
1582811557947,3051338,0,2,0
1582811558046,3050857,0,2,0
1582811558147,3048702,0,2,0
1582811558247,3045904,0,2,0
1582811558347,3043356,0,2,0
1582811558448,3041424,0,2,0
1582811558547,3040182,0,2,0
1582811558647,3039699,0,2,0
1582811558747,3039307,0,2,0
1582811558847,3039601,0,2,0
1582811558947,3039819,0,2,0
1582811559048,3038462,0,2,0
1582811559147,3036572,0,2,0
1582811559248,3035259,0,2,0
1582811559348,3034327,0,2,0
1582811559447,3033983,0,2,0
1582811559547,3033878,0,2,0
1582811559648,3034453,0,2,0
1582811559747,3034973,0,2,0
1582811559848,3035792,0,2,0
1582811559948,3036712,0,2,0
1582811560048,3036010,0,2,0
1582811560148,3034389,0,2,0
1582811560248,3033429,0,2,0
1582811560348,3032671,0,2,0
1582811560448,3032582,0,2,0
1582811560548,3032500,0,2,0
1582811560648,3032894,0,2,0
1582811560748,3033369,0,2,0
1582811560849,3033993,0,2,0
1582811560948,3034993,0,2,0
1582811561048,3035181,0,2,0
1582811561149,3033906,0,2,0
1582811561249,3032556,0,2,0
1582811561349,3031868,0,2,0
1582811561449,3031284,0,2,0
1582811561549,3031110,0,2,0
1582811561649,3031362,0,2,0
1582811561749,3031807,0,2,0
1582811561849,3032532,0,2,0
1582811561949,3033626,0,2,0
1582811562050,3034616,0,2,0
1582811562149,3034196,0,2,0
1582811562250,3033339,0,2,0
1582811562350,3032863,0,2,0
1582811562449,3032705,0,2,0
1582811562550,3032814,0,2,0
1582811562650,3033329,0,2,0
1582811562750,3034102,0,2,0
1582811562850,3035086,0,2,0
1582811562950,3035893,0,2,0
1582811563050,3036693,0,2,0
1582811563150,3035830,0,2,0
1582811563250,3035041,0,2,0
1582811563350,3034689,0,2,0
1582811563450,3034729,0,2,0
1582811563550,3035040,0,2,0
1582811563650,3035693,0,2,0
1582811563750,3036537,0,2,0
1582811563850,3037419,0,2,0
1582811563950,3038320,0,2,0
1582811564051,3038961,0,2,0
1582811564151,3037420,0,2,0
1582811564251,3035212,0,2,0
1582811564351,3033073,0,2,0
1582811564451,3032923,0,2,0
1582811564551,3033501,0,2,0
1582811564651,3034696,0,2,0
1582811564751,3035674,0,2,0
1582811564851,3036788,0,2,0
1582811564951,3037604,0,2,0
1582811565051,3037441,0,2,0
1582811565151,3036367,0,2,0
1582811565251,3035863,0,2,0
1582811565351,3035771,0,2,0
1582811565452,3036016,0,2,0
1582811565552,3036479,0,2,0
1582811565652,3037177,0,2,0
1582811565752,3037748,0,2,0
1582811565852,3038621,0,2,0
1582811565953,3038789,0,2,0
1582811566052,3037575,0,2,0
1582811566152,3036662,0,2,0
1582811566253,3036367,0,2,0
1582811566352,3036204,0,2,0
1582811566452,3036486,0,2,0
1582811566552,3036835,0,2,0
1582811566652,3037217,0,2,0
1582811566752,3037581,0,2,0
1582811566856,3037488,0,2,0
1582811566953,3036477,0,2,0
1582811567052,3035482,0,2,0
1582811567153,3034618,0,2,0
1582811567253,3033933,0,2,0
1582811567353,3033016,0,2,0
1582811567453,3032690,0,2,0
1582811567554,3032463,0,2,0
1582811567653,3031431,0,2,0
1582811567753,3029961,0,2,0
1582811567853,3029111,0,2,0
1582811567953,3028262,0,2,0
1582811568053,3027855,0,2,0
1582811568153,3027891,0,2,0
1582811568254,3028101,0,2,0
1582811568354,3026699,0,2,0
1582811568455,3025560,0,2,0
1582811568555,3024900,0,2,0
1582811568654,3025140,0,2,0
1582811568754,3025976,0,2,0
1582811568855,3026991,0,2,0
1582811568956,3027788,0,2,0
1582811569055,3028397,0,2,0
1582811569154,3027200,0,2,0
1582811569255,3026031,0,2,0
1582811569354,3025330,0,2,0
1582811569454,3025181,0,2,0
1582811569555,3025080,0,2,0
1582811569655,3025591,0,2,0
1582811569755,3026386,0,2,0
1582811569855,3027318,0,2,0
1582811569954,3028102,0,2,0
1582811570055,3028241,0,2,0
1582811570155,3026658,0,2,0
1582811570255,3025250,0,2,0
1582811570355,3024366,0,2,0
1582811570455,3023865,0,2,0
1582811570555,3024097,0,2,0
1582811570655,3024710,0,2,0
1582811570755,3025625,0,2,0
1582811570855,3026430,0,2,0
1582811570955,3027744,0,2,0
1582811571057,3028728,0,2,0
1582811571157,3027957,0,2,0
1582811571257,3025944,0,2,0
1582811571357,3025173,0,2,0
1582811571456,3024690,0,2,0
1582811571556,3024660,0,2,0
1582811571657,3025055,0,2,0
1582811571756,3025609,0,2,0
1582811571856,3026480,0,2,0
1582811571956,3027444,0,2,0
1582811572056,3028400,0,2,0
1582811572156,3027657,0,2,0
1582811572256,3026311,0,2,0
1582811572356,3025389,0,2,0
1582811572456,3024888,0,2,0
1582811572557,3024843,0,2,0
1582811572656,3025146,0,2,0
1582811572757,3025751,0,2,0
1582811572857,3026345,0,2,0
1582811572956,3027282,0,2,0
1582811573055,3028288,0,2,0
1582811573156,3028478,0,2,0
1582811573256,3027518,0,2,0
1582811573355,3026807,0,2,0
1582811573456,3026626,0,2,0
1582811573556,3026920,0,2,0
1582811573656,3027572,0,2,0
1582811573756,3028471,0,2,0
1582811573856,3029461,0,2,0
1582811573956,3030622,0,2,0
1582811574057,3032031,0,2,0
1582811574156,3032929,0,2,0
1582811574256,3032409,0,2,0
1582811574356,3032125,0,2,0
1582811574456,3032033,0,2,0
1582811574556,3032199,0,2,0
1582811574657,3032573,0,2,0
1582811574756,3033516,0,2,0
1582811574857,3034283,0,2,0
1582811574957,3035487,0,2,0
1582811575057,3036595,0,2,0
1582811575156,3037593,0,2,0
1582811575257,3036883,0,2,0
1582811575357,3036328,0,2,0
1582811575457,3036009,0,2,0
1582811575557,3035687,0,2,0
1582811575657,3035936,0,2,0
1582811575757,3036386,0,2,0
1582811575857,3037005,0,2,0
1582811575957,3037770,0,2,0
1582811576058,3039026,0,2,0
1582811576158,3040367,0,2,0
1582811576258,3041254,0,2,0
1582811576359,3041924,0,2,0
1582811576459,3042057,0,2,0
1582811576559,3042420,0,2,0
1582811576659,3044591,0,2,0
1582811576759,3046995,0,2,0
1582811576859,3049480,0,2,0
1582811576959,3051973,0,2,0
1582811577059,3054418,0,2,0
1582811577159,3055986,0,2,0
1582811577259,3056505,0,2,0
1582811577359,3056907,0,2,0
1582811577459,3057532,0,2,0
1582811577560,3058111,0,2,0
1582811577660,3059015,0,2,0
1582811577760,3059944,0,2,0
1582811577859,3060605,0,2,0
1582811577960,3061177,0,2,0
1582811578060,3060227,0,2,0
1582811578160,3058896,0,2,0
1582811578260,3057954,0,2,0
1582811578360,3056672,0,2,0
1582811578460,3055728,0,2,0
1582811578560,3055628,0,2,0
1582811578660,3055897,0,2,0
1582811578760,3056257,0,2,0
1582811578861,3055068,0,2,0
1582811578961,3053920,0,2,0
1582811579061,3053104,0,2,0
1582811579160,3052733,0,2,0
1582811579261,3052684,0,2,0
1582811579361,3053625,0,2,0
1582811579461,3055194,0,2,0
1582811579561,3057147,0,2,0
1582811579661,3057649,0,2,0
1582811579761,3057880,0,2,0
1582811579861,3058058,0,2,0
1582811579961,3058386,0,2,0
1582811580062,3058648,0,2,0
1582811580161,3059332,0,2,0
1582811580262,3060098,0,2,0
1582811580362,3060406,0,2,0
1582811580462,3058551,0,2,0
1582811580561,3056874,0,2,0
1582811580662,3055494,0,2,0
1582811580762,3054272,0,2,0
1582811580862,3053427,0,2,0
1582811580962,3053046,0,2,0
1582811581062,3053140,0,2,0
1582811581162,3054152,0,2,0
1582811581262,3054671,0,2,0
1582811581362,3054060,0,2,0
1582811581462,3053805,0,2,0
1582811581562,3053988,0,2,0
1582811581662,3054274,0,2,0
1582811581762,3054832,0,2,0
1582811581863,3055163,0,2,0
1582811581962,3056049,0,2,0
1582811582062,3057561,0,2,0
1582811582163,3057445,0,2,0
1582811582263,3057366,0,2,0
1582811582363,3057562,0,2,0
1582811582463,3057526,0,2,0
1582811582563,3057671,0,2,0
1582811582663,3058095,0,2,0
1582811582763,3058336,0,2,0
1582811582865,3058782,0,2,0
1582811582963,3058929,0,2,0
1582811583063,3057272,0,2,0
1582811583163,3055443,0,2,0
1582811583264,3054277,0,2,0
1582811583366,3053397,0,2,0
1582811583463,3053149,0,2,0
1582811583562,3053174,0,2,0
1582811583664,3053551,0,2,0
1582811583763,3054026,0,2,0
1582811583862,3054571,0,2,0
1582811583964,3053402,0,2,0
1582811584066,3051821,0,2,0
1582811584162,3050516,0,2,0
1582811584264,3049620,0,2,0
1582811584363,3049301,0,2,0
1582811584463,3049519,0,2,0
1582811584563,3049827,0,2,0
1582811584663,3050468,0,2,0
1582811584763,3051330,0,2,0
1582811584866,3051473,0,2,0
1582811584963,3049621,0,2,0
1582811585063,3048099,0,2,0
1582811585164,3047085,0,2,0
1582811585264,3046400,0,2,0
1582811585363,3046197,0,2,0
1582811585464,3046422,0,2,0
1582811585566,3046606,0,2,0
1582811585664,3046810,0,2,0
1582811585764,3047216,0,2,0
1582811585864,3045610,0,2,0
1582811585964,3043735,0,2,0
1582811586064,3042271,0,2,0
1582811586164,3041489,0,2,0
1582811586264,3041143,0,2,0
1582811586365,3041390,0,2,0
1582811586465,3041964,0,2,0
1582811586565,3043049,0,2,0
1582811586666,3044568,0,2,0
1582811586765,3044242,0,2,0
1582811586866,3039963,0,2,0
1582811586966,3036377,0,2,0
1582811587066,3036365,0,2,0
1582811587166,3038813,0,2,0
1582811587266,3042174,0,2,0
1582811587366,3043317,0,2,0
1582811587466,3044661,0,2,0
1582811587567,3046070,0,2,0
1582811587666,3046824,0,2,0
1582811587766,3044034,0,2,0
1582811587866,3040149,0,2,0
1582811587966,3037690,0,2,0
1582811588066,3035997,0,2,0
1582811588167,3034688,0,2,0
1582811588267,3033037,0,2,0
1582811588367,3032272,0,2,0
1582811588467,3032454,0,2,0
1582811588567,3034121,0,2,0
1582811588667,3034795,0,2,0
1582811588767,3036016,0,2,0
1582811588867,3036824,0,2,0
1582811588967,3037451,0,2,0
1582811589068,3038621,0,2,0
1582811589167,3039706,0,2,0
1582811589267,3040890,0,2,0
1582811589369,3042288,0,2,0
1582811589467,3041416,0,2,0
1582811589568,3040961,0,2,0
1582811589668,3040989,0,2,0
1582811589768,3041365,0,2,0
1582811589868,3042380,0,2,0
1582811589968,3043427,0,2,0
1582811590068,3045004,0,2,0
1582811590168,3045256,0,2,0
1582811590269,3044313,0,2,0
1582811590368,3043850,0,2,0
1582811590468,3043627,0,2,0
1582811590569,3043729,0,2,0
1582811590668,3044057,0,2,0
1582811590769,3044843,0,2,0
1582811590869,3045802,0,2,0
1582811590969,3044801,0,2,0
1582811591069,3042954,0,2,0
1582811591169,3042004,0,2,0
1582811591269,3041400,0,2,0
1582811591369,3041089,0,2,0
1582811591469,3041447,0,2,0
1582811591569,3042163,0,2,0
1582811591669,3043149,0,2,0
1582811591769,3043479,0,2,0
1582811591869,3041429,0,2,0
1582811591969,3039506,0,2,0
1582811592069,3038779,0,2,0
1582811592169,3038361,0,2,0
1582811592269,3038342,0,2,0
1582811592369,3039008,0,2,0
1582811592469,3039638,0,2,0
1582811592570,3040620,0,2,0
1582811592670,3041879,0,2,0
1582811592770,3042648,0,2,0
1582811592870,3040763,0,2,0
1582811592970,3039182,0,2,0
1582811593070,3038298,0,2,0
1582811593170,3037814,0,2,0
1582811593271,3037852,0,2,0
1582811593370,3038384,0,2,0
1582811593470,3039370,0,2,0
1582811593570,3040191,0,2,0
1582811593670,3041359,0,2,0
1582811593771,3042135,0,2,0
1582811593871,3040575,0,2,0
1582811593971,3039611,0,2,0
1582811594071,3039043,0,2,0
1582811594171,3038760,0,2,0
1582811594271,3039141,0,2,0
1582811594371,3039966,0,2,0
1582811594471,3040945,0,2,0
1582811594571,3042279,0,2,0
1582811594671,3043494,0,2,0
1582811594771,3042985,0,2,0
1582811594871,3041918,0,2,0
1582811594971,3041161,0,2,0
1582811595071,3041202,0,2,0
1582811595171,3041465,0,2,0
1582811595271,3042238,0,2,0
1582811595372,3043242,0,2,0
1582811595471,3044259,0,2,0
1582811595572,3045509,0,2,0
1582811595672,3046705,0,2,0
1582811595772,3045976,0,2,0
1582811595872,3044650,0,2,0
1582811595972,3044102,0,2,0
1582811596072,3043738,0,2,0
1582811596172,3043792,0,2,0
1582811596273,3044224,0,2,0
1582811596372,3045155,0,2,0
1582811596472,3046046,0,2,0
1582811596572,3047268,0,2,0
1582811596672,3047867,0,2,0
1582811596772,3046297,0,2,0
1582811596875,3045068,0,2,0
1582811596973,3044738,0,2,0
1582811597072,3044041,0,2,0
1582811597173,3043375,0,2,0
1582811597273,3043088,0,2,0
1582811597373,3042762,0,2,0
1582811597473,3042835,0,2,0
1582811597574,3043648,0,2,0
1582811597673,3044326,0,2,0
1582811597774,3046064,0,2,0
1582811597873,3048261,0,2,0
1582811597973,3049870,0,2,0
1582811598074,3051264,0,2,0
1582811598173,3052212,0,2,0
1582811598274,3053019,0,2,0
1582811598374,3053554,0,2,0
1582811598473,3051921,0,2,0
1582811598574,3050075,0,2,0
1582811598674,3048913,0,2,0
1582811598774,3047596,0,2,0
1582811598876,3047022,0,2,0
1582811598974,3046714,0,2,0
1582811599075,3045998,0,2,0
1582811599174,3043421,0,2,0
1582811599274,3038905,0,2,0
1582811599375,3035238,0,2,0
1582811599474,3032693,0,2,0
1582811599575,3030751,0,2,0
1582811599674,3029744,0,2,0
1582811599774,3030109,0,2,0
1582811599875,3030562,0,2,0
1582811599974,3031573,0,2,0
1582811600075,3030786,0,2,0
1582811600175,3030939,0,2,0
1582811600275,3031694,0,2,0
1582811600375,3032649,0,2,0
1582811600475,3033884,0,2,0
1582811600575,3036300,0,2,0
1582811600675,3038034,0,2,0
1582811600775,3039324,0,2,0
1582811600876,3040365,0,2,0
1582811600976,3041227,0,2,0
1582811601076,3040187,0,2,0
1582811601175,3038427,0,2,0
1582811601276,3037144,0,2,0
1582811601376,3036521,0,2,0
1582811601476,3036387,0,2,0
1582811601576,3036713,0,2,0
1582811601676,3037268,0,2,0
1582811601776,3038114,0,2,0
1582811601876,3038976,0,2,0
1582811601976,3039968,0,2,0
1582811602076,3039685,0,2,0
1582811602176,3038222,0,2,0
1582811602276,3037283,0,2,0
1582811602376,3037016,0,2,0
1582811602476,3036985,0,2,0
1582811602577,3037917,0,2,0
1582811602676,3038729,0,2,0
1582811602778,3039684,0,2,0
1582811602878,3041522,0,2,0
1582811602978,3041764,0,2,0
1582811603077,3040241,0,2,0
1582811603178,3038992,0,2,0
1582811603278,3038397,0,2,0
1582811603377,3038056,0,2,0
1582811603478,3038164,0,2,0
1582811603578,3038440,0,2,0
1582811603677,3038962,0,2,0
1582811603777,3039448,0,2,0
1582811603877,3040264,0,2,0
1582811603977,3040261,0,2,0
1582811604078,3038864,0,2,0
1582811604177,3037772,0,2,0
1582811604278,3037475,0,2,0
1582811604378,3037325,0,2,0
1582811604478,3037731,0,2,0
1582811604578,3038590,0,2,0
1582811604678,3039278,0,2,0
1582811604778,3040498,0,2,0
1582811604878,3041630,0,2,0
1582811604978,3041857,0,2,0
1582811605078,3040499,0,2,0
1582811605178,3039739,0,2,0
1582811605279,3039110,0,2,0
1582811605378,3038951,0,2,0
1582811605478,3039172,0,2,0
1582811605578,3041293,0,2,0
1582811605678,3044001,0,2,0
1582811605778,3045436,0,2,0
1582811605879,3046854,0,2,0
1582811605978,3046077,0,2,0
1582811606078,3044240,0,2,0
1582811606179,3042825,0,2,0
1582811606279,3042076,0,2,0
1582811606379,3042210,0,2,0
1582811606479,3042894,0,2,0
1582811606579,3043524,0,2,0
1582811606679,3044108,0,2,0
1582811606779,3044603,0,2,0
1582811606879,3045185,0,2,0
1582811606979,3043824,0,2,0
1582811607079,3042496,0,2,0
1582811607179,3041387,0,2,0
1582811607279,3040624,0,2,0
1582811607379,3040410,0,2,0
1582811607479,3040377,0,2,0
1582811607580,3040850,0,2,0
1582811607680,3041353,0,2,0
1582811607780,3042177,0,2,0
1582811607880,3043249,0,2,0
1582811607980,3042483,0,2,0
1582811608080,3041726,0,2,0
1582811608180,3041163,0,2,0
1582811608281,3041108,0,2,0
1582811608380,3041295,0,2,0
1582811608480,3041953,0,2,0
1582811608581,3042612,0,2,0
1582811608680,3043703,0,2,0
1582811608781,3044721,0,2,0
1582811608881,3045774,0,2,0
1582811608981,3045225,0,2,0
1582811609081,3044454,0,2,0
1582811609181,3044015,0,2,0
1582811609281,3043911,0,2,0
1582811609382,3045054,0,2,0
1582811609481,3046506,0,2,0
1582811609582,3047891,0,2,0
1582811609681,3049537,0,2,0
1582811609781,3051539,0,2,0
1582811609881,3052851,0,2,0
1582811609981,3052513,0,2,0
1582811610081,3052405,0,2,0
1582811610181,3052590,0,2,0
1582811610281,3052757,0,2,0
1582811610381,3053816,0,2,0
1582811610481,3055428,0,2,0
1582811610581,3057363,0,2,0
1582811610682,3059500,0,2,0
1582811610782,3061038,0,2,0
1582811610882,3060866,0,2,0
1582811610982,3060725,0,2,0
1582811611082,3060737,0,2,0
1582811611182,3060640,0,2,0
1582811611282,3060608,0,2,0
1582811611382,3061034,0,2,0
1582811611482,3061485,0,2,0
1582811611584,3061787,0,2,0
1582811611682,3060287,0,2,0
1582811611783,3059261,0,2,0
1582811611883,3058955,0,2,0
1582811611983,3058652,0,2,0
1582811612085,3058958,0,2,0
1582811612183,3059370,0,2,0
1582811612283,3060235,0,2,0
1582811612384,3060525,0,2,0
1582811612483,3058321,0,2,0
1582811612583,3056074,0,2,0
1582811612683,3054737,0,2,0
1582811612783,3054573,0,2,0
1582811612885,3056367,0,2,0
1582811612983,3057931,0,2,0
1582811613083,3059287,0,2,0
1582811613183,3060954,0,2,0
1582811613283,3062700,0,2,0
1582811613383,3064115,0,2,0
1582811613483,3063155,0,2,0
1582811613586,3062058,0,2,0
1582811613684,3061192,0,2,0
1582811613784,3060460,0,2,0
1582811613884,3059888,0,2,0
1582811613984,3059699,0,2,0
1582811614086,3059662,0,2,0
1582811614184,3059927,0,2,0
1582811614285,3060502,0,2,0
1582811614384,3060635,0,2,0
1582811614484,3059054,0,2,0
1582811614584,3056858,0,2,0
1582811614684,3055055,0,2,0
1582811614785,3053585,0,2,0
1582811614885,3052372,0,2,0
1582811614985,3051483,0,2,0
1582811615085,3051292,0,2,0
1582811615185,3051886,0,2,0
1582811615285,3053280,0,2,0
1582811615385,3054570,0,2,0
1582811615485,3054715,0,2,0
1582811615585,3053739,0,2,0
1582811615685,3052781,0,2,0
1582811615786,3051039,0,2,0
1582811615886,3049984,0,2,0
1582811615985,3048340,0,2,0
1582811616086,3046727,0,2,0
1582811616185,3045594,0,2,0
1582811616286,3045323,0,2,0
1582811616385,3042047,0,2,0
1582811616486,3038126,0,2,0
1582811616586,3035991,0,2,0
1582811616686,3033767,0,2,0
1582811616786,3031679,0,2,0
1582811616886,3029334,0,2,0
1582811616986,3028392,0,2,0
1582811617086,3027866,0,2,0
1582811617186,3029006,0,2,0
1582811617287,3030068,0,2,0
1582811617386,3031022,0,2,0
1582811617486,3030176,0,2,0
1582811617587,3029523,0,2,0
1582811617687,3029050,0,2,0
1582811617787,3028457,0,2,0
1582811617887,3028949,0,2,0
1582811617987,3029696,0,2,0
1582811618087,3030292,0,2,0
1582811618187,3030717,0,2,0
1582811618287,3031174,0,2,0
1582811618387,3031247,0,2,0
1582811618487,3029909,0,2,0
1582811618588,3029110,0,2,0
1582811618687,3028459,0,2,0
1582811618788,3027470,0,2,0
1582811618888,3026999,0,2,0
1582811618988,3026932,0,2,0
1582811619088,3026658,0,2,0
1582811619188,3027010,0,2,0
1582811619288,3027025,0,2,0
1582811619388,3025937,0,2,0
1582811619488,3024688,0,2,0
1582811619588,3023936,0,2,0
1582811619689,3023990,0,2,0
1582811619788,3024223,0,2,0
1582811619888,3024570,0,2,0
1582811619988,3025116,0,2,0
1582811620088,3025665,0,2,0
1582811620188,3026349,0,2,0
1582811620288,3026004,0,2,0
1582811620388,3025012,0,2,0
1582811620488,3024124,0,2,0
1582811620588,3023928,0,2,0
1582811620688,3023264,0,2,0
1582811620788,3022437,0,2,0
1582811620889,3021819,0,2,0
1582811620989,3021861,0,2,0
1582811621089,3021150,0,2,0
1582811621189,3019148,0,2,0
1582811621289,3017658,0,2,0
1582811621389,3016480,0,2,0
1582811621489,3015695,0,2,0
1582811621589,3015270,0,2,0
1582811621689,3015017,0,2,0
1582811621789,3015208,0,2,0
1582811621889,3013895,0,2,0
1582811621989,3011650,0,2,0
1582811622090,3010017,0,2,0
1582811622190,3008919,0,2,0
1582811622290,3007752,0,2,0
1582811622390,3007042,0,2,0
1582811622490,3006454,0,2,0
1582811622591,3005839,0,2,0
1582811622690,3004236,0,2,0
1582811622790,3002190,0,2,0
1582811622890,3000738,0,2,0
1582811622990,2999640,0,2,0
1582811623090,2998910,0,2,0
1582811623190,2998776,0,2,0
1582811623289,2999356,0,2,0
1582811623389,2999298,0,2,0
1582811623489,2999355,0,2,0
1582811623590,2998017,0,2,0
1582811623689,2996810,0,2,0
1582811623789,2996307,0,2,0
1582811623889,2995465,0,2,0
1582811623989,2994557,0,2,0
1582811624090,2993616,0,2,0
1582811624190,2992876,0,2,0
1582811624290,2992700,0,2,0
1582811624389,2992074,0,2,0
1582811624490,2990570,0,2,0
1582811624590,2988617,0,2,0
1582811624691,2992956,0,2,0
1582811624791,2998183,0,2,0
1582811624891,3001721,0,2,0
1582811624991,3003907,0,2,0
1582811625091,3004979,0,2,0
1582811625191,3008684,0,2,0
1582811625291,3010552,0,2,0
1582811625391,3009826,0,2,0
1582811625491,3012102,0,2,0
1582811625591,3018464,0,2,0
1582811625692,3021274,0,2,0
1582811625792,3021213,0,2,0
1582811625892,3025172,0,2,0
1582811625992,3031080,0,2,0
1582811626092,3033451,0,2,0
1582811626192,3032046,0,2,0
1582811626293,3032148,0,2,0
1582811626392,3032480,0,2,0
1582811626492,3030832,0,2,0
1582811626592,3029146,0,2,0
1582811626692,3028135,0,2,0
1582811626792,3027801,0,2,0
1582811626895,3027591,0,2,0
1582811626993,3027097,0,2,0
1582811627092,3025927,0,2,0
1582811627193,3024674,0,2,0
1582811627293,3023915,0,2,0
1582811627393,3023565,0,2,0
1582811627493,3023600,0,2,0
1582811627596,3023149,0,2,0
1582811627693,3021957,0,2,0
1582811627793,3021008,0,2,0
1582811627893,3021930,0,2,0
1582811627993,3024861,0,2,0
1582811628093,3027062,0,2,0
1582811628193,3028973,0,2,0
1582811628294,3030190,0,2,0
1582811628395,3030129,0,2,0
1582811628494,3030603,0,2,0
1582811628594,3030932,0,2,0
1582811628693,3031270,0,2,0
1582811628794,3031642,0,2,0
1582811628896,3032232,0,2,0
1582811628994,3031824,0,2,0
1582811629095,3031291,0,2,0
1582811629194,3031281,0,2,0
1582811629295,3030754,0,2,0
1582811629394,3030610,0,2,0
1582811629494,3030679,0,2,0
1582811629595,3030729,0,2,0
1582811629695,3031193,0,2,0
1582811629795,3031747,0,2,0
1582811629895,3031433,0,2,0
1582811629995,3031087,0,2,0
1582811630095,3030755,0,2,0
1582811630195,3030296,0,2,0
1582811630295,3030187,0,2,0
1582811630395,3030010,0,2,0
1582811630495,3027979,0,2,0
1582811630595,3025723,0,2,0
1582811630695,3023588,0,2,0
1582811630795,3020968,0,2,0
1582811630895,3018844,0,2,0
1582811630995,3017275,0,2,0
1582811631095,3015990,0,2,0
1582811631195,3014928,0,2,0
1582811631296,3014403,0,2,0
1582811631396,3014587,0,2,0
1582811631495,3015732,0,2,0
1582811631596,3016335,0,2,0
1582811631696,3017897,0,2,0
1582811631796,3020247,0,2,0
1582811631896,3022325,0,2,0
1582811631996,3024975,0,2,0
1582811632096,3027267,0,2,0
1582811632196,3028829,0,2,0
1582811632297,3030104,0,2,0
1582811632396,3030845,0,2,0
1582811632496,3030538,0,2,0
1582811632597,3030322,0,2,0
1582811632696,3029996,0,2,0
1582811632797,3029475,0,2,0
1582811632897,3029762,0,2,0
1582811632997,3030134,0,2,0
1582811633097,3030583,0,2,0
1582811633197,3031120,0,2,0
1582811633298,3031465,0,2,0
1582811633397,3031028,0,2,0
1582811633497,3030373,0,2,0
1582811633597,3029990,0,2,0
1582811633697,3029578,0,2,0
1582811633797,3029535,0,2,0
1582811633897,3029595,0,2,0
1582811633997,3030051,0,2,0
1582811634098,3030401,0,2,0
1582811634197,3030858,0,2,0
1582811634297,3031105,0,2,0
1582811634399,3029974,0,2,0
1582811634499,3029008,0,2,0
1582811634599,3028346,0,2,0
1582811634698,3027674,0,2,0
1582811634799,3027598,0,2,0
1582811634899,3026778,0,2,0
1582811634999,3023379,0,2,0
1582811635098,3019959,0,2,0
1582811635198,3018898,0,2,0
1582811635299,3020543,0,2,0
1582811635398,3021506,0,2,0
1582811635498,3019782,0,2,0
1582811635599,3018744,0,2,0
1582811635698,3019342,0,2,0
1582811635798,3020408,0,2,0
1582811635899,3021055,0,2,0
1582811635998,3022369,0,2,0
1582811636098,3023134,0,2,0
1582811636199,3022078,0,2,0
1582811636299,3020880,0,2,0
1582811636399,3019664,0,2,0
1582811636499,3018117,0,2,0
1582811636599,3017175,0,2,0
1582811636699,3016791,0,2,0
1582811636799,3016695,0,2,0
1582811636899,3016510,0,2,0
1582811637000,3015590,0,2,0
1582811637100,3014523,0,2,0
1582811637199,3014185,0,2,0
1582811637300,3010677,0,2,0
1582811637399,3006556,0,2,0
1582811637499,3006603,0,2,0
1582811637600,3008222,0,2,0
1582811637700,3009121,0,2,0
1582811637800,3010968,0,2,0
1582811637900,3011370,0,2,0
1582811638000,3011156,0,2,0
1582811638100,3010982,0,2,0
1582811638200,3010499,0,2,0
1582811638300,3009861,0,2,0
1582811638400,3009684,0,2,0
1582811638500,3009550,0,2,0
1582811638600,3009752,0,2,0
1582811638700,3009329,0,2,0
1582811638800,3007866,0,2,0
1582811638901,3007149,0,2,0
1582811639001,3007208,0,2,0
1582811639101,3007108,0,2,0
1582811639201,3006172,0,2,0
1582811639301,3004511,0,2,0
1582811639401,3004585,0,2,0
1582811639501,3004315,0,2,0
1582811639601,3002977,0,2,0
1582811639701,3003199,0,2,0
1582811639802,3003442,0,2,0
1582811639901,3002642,0,2,0
1582811640003,3000057,0,2,0
1582811640102,2998275,0,2,0
1582811640201,2998239,0,2,0
1582811640302,2997612,0,2,0
1582811640402,2995764,0,2,0
1582811640502,2994492,0,2,0
1582811640602,2993882,0,2,0
1582811640701,2991373,0,2,0
1582811640802,2988398,0,2,0
1582811640902,2985046,0,2,0
1582811641002,2983432,0,2,0
1582811641102,2981662,0,2,0
1582811641202,2979962,0,2,0
1582811641303,2978870,0,2,0
1582811641402,2979792,0,2,0
1582811641502,2983723,0,2,0
1582811641603,2987304,0,2,0
1582811641702,2989397,0,2,0
1582811641802,2990783,0,2,0
1582811641903,2990647,0,2,0
1582811642002,2988956,0,2,0
1582811642102,2987965,0,2,0
1582811642203,2987568,0,2,0
1582811642303,2987194,0,2,0
1582811642403,2986923,0,2,0
1582811642503,2986837,0,2,0
1582811642604,2986265,0,2,0
1582811642703,2984713,0,2,0
1582811642804,2982810,0,2,0
1582811642905,2981798,0,2,0
1582811643003,2981200,0,2,0
1582811643103,2980750,0,2,0
1582811643203,2980461,0,2,0
1582811643304,2978945,0,2,0
1582811643404,2978512,0,2,0
1582811643504,2976465,0,2,0
1582811643606,2972737,0,2,0
1582811643704,2971208,0,2,0
1582811643804,2965190,0,2,0
1582811643904,2958211,0,2,0
1582811644004,2954149,0,2,0
1582811644105,2952677,0,2,0
1582811644204,2951213,0,2,0
1582811644305,2952979,0,2,0
1582811644404,2955491,0,2,0
1582811644504,2958593,0,2,0
1582811644605,2959720,0,2,0
1582811644704,2956059,0,2,0
1582811644805,2952907,0,2,0
1582811644905,2952644,0,2,0
1582811645005,2956098,0,2,0
1582811645105,2961441,0,2,0
1582811645205,2969289,0,2,0
1582811645305,2978046,0,2,0
1582811645405,2984122,0,2,0
1582811645505,2989267,0,2,0
1582811645605,2994372,0,2,0
1582811645705,2999731,0,2,0
1582811645806,3004823,0,2,0
1582811645905,3009831,0,2,0
1582811646005,3014362,0,2,0
1582811646106,3018498,0,2,0
1582811646206,3022323,0,2,0
1582811646306,3025834,0,2,0
1582811646406,3027042,0,2,0
1582811646506,3027851,0,2,0
1582811646606,3028827,0,2,0
1582811646706,3029636,0,2,0
1582811646806,3030613,0,2,0
1582811646906,3032049,0,2,0
1582811647006,3033607,0,2,0
1582811647106,3035666,0,2,0
1582811647207,3037333,0,2,0
1582811647307,3037779,0,2,0
1582811647406,3037940,0,2,0
1582811647506,3038817,0,2,0
1582811647607,3040056,0,2,0
1582811647706,3041286,0,2,0
1582811647806,3042463,0,2,0
1582811647906,3042973,0,2,0
1582811648007,3043870,0,2,0
1582811648106,3045353,0,2,0
1582811648207,3044879,0,2,0
1582811648307,3044572,0,2,0
1582811648407,3043655,0,2,0
1582811648507,3041771,0,2,0
1582811648607,3041808,0,2,0
1582811648706,3042293,0,2,0
1582811648807,3043900,0,2,0
1582811648907,3045734,0,2,0
1582811649007,3047519,0,2,0
1582811649108,3048832,0,2,0
1582811649207,3050072,0,2,0
1582811649307,3052597,0,2,0
1582811649408,3054670,0,2,0
1582811649507,3056318,0,2,0
1582811649608,3057657,0,2,0
1582811649707,3058884,0,2,0
1582811649808,3060577,0,2,0
1582811649908,3060207,0,2,0
1582811650008,3059492,0,2,0
1582811650108,3058859,0,2,0
1582811650208,3058520,0,2,0
1582811650309,3058132,0,2,0
1582811650408,3058128,0,2,0
1582811650508,3058580,0,2,0
1582811650609,3059098,0,2,0
1582811650708,3058400,0,2,0
1582811650809,3056800,0,2,0
1582811650909,3055716,0,2,0
1582811651010,3055302,0,2,0
1582811651109,3055261,0,2,0
1582811651209,3055932,0,2,0
1582811651309,3056174,0,2,0
1582811651409,3056641,0,2,0
1582811651509,3056289,0,2,0
1582811651609,3054530,0,2,0
1582811651709,3053108,0,2,0
1582811651809,3052264,0,2,0
1582811651909,3051827,0,2,0
1582811652009,3051623,0,2,0
1582811652109,3051929,0,2,0
1582811652209,3052147,0,2,0
1582811652309,3052337,0,2,0
1582811652410,3051038,0,2,0
1582811652510,3049596,0,2,0
1582811652608,3048785,0,2,0
1582811652709,3047956,0,2,0
1582811652808,3047891,0,2,0
1582811652909,3048119,0,2,0
1582811653009,3048448,0,2,0
1582811653109,3049196,0,2,0
1582811653209,3050263,0,2,0
1582811653309,3049764,0,2,0
1582811653409,3048572,0,2,0
1582811653509,3047784,0,2,0
1582811653609,3047428,0,2,0
1582811653709,3046955,0,2,0
1582811653809,3047163,0,2,0
1582811653910,3047511,0,2,0
1582811654009,3048209,0,2,0
1582811654110,3049113,0,2,0
1582811654210,3049948,0,2,0
1582811654310,3049572,0,2,0
1582811654410,3048464,0,2,0
1582811654510,3047646,0,2,0
1582811654610,3047157,0,2,0
1582811654710,3047144,0,2,0
1582811654810,3047453,0,2,0
1582811654910,3047968,0,2,0
1582811655010,3048548,0,2,0
1582811655110,3049452,0,2,0
1582811655210,3050509,0,2,0
1582811655310,3050110,0,2,0
1582811655411,3049517,0,2,0
1582811655510,3049417,0,2,0
1582811655610,3049333,0,2,0
1582811655711,3049849,0,2,0
1582811655811,3050716,0,2,0
1582811655911,3051671,0,2,0
1582811656011,3052591,0,2,0
1582811656110,3053782,0,2,0
1582811656211,3053975,0,2,0
1582811656311,3053351,0,2,0
1582811656411,3053097,0,2,0
1582811656511,3053060,0,2,0
1582811656611,3052956,0,2,0
1582811656711,3053403,0,2,0
1582811656811,3054102,0,2,0
1582811656912,3054974,0,2,0
1582811657011,3055814,0,2,0
1582811657111,3054923,0,2,0
1582811657212,3054070,0,2,0
1582811657312,3051057,0,2,0
1582811657412,3048498,0,2,0
1582811657512,3046919,0,2,0
1582811657612,3046390,0,2,0
1582811657712,3045860,0,2,0
1582811657813,3045295,0,2,0
1582811657912,3044806,0,2,0
1582811658012,3042923,0,2,0
1582811658113,3041633,0,2,0
1582811658212,3041281,0,2,0
1582811658313,3041372,0,2,0
1582811658413,3040965,0,2,0
1582811658512,3039512,0,2,0
1582811658612,3038409,0,2,0
1582811658713,3038324,0,2,0
1582811658813,3038496,0,2,0
1582811658915,3036861,0,2,0
1582811659013,3035614,0,2,0
1582811659114,3034301,0,2,0
1582811659213,3033025,0,2,0
1582811659313,3032390,0,2,0
1582811659413,3033968,0,2,0
1582811659513,3036810,0,2,0
1582811659615,3038750,0,2,0
1582811659713,3040841,0,2,0
1582811659813,3041095,0,2,0
1582811659914,3041041,0,2,0
1582811660013,3041860,0,2,0
1582811660114,3043379,0,2,0
1582811660216,3046300,0,2,0
1582811660315,3049004,0,2,0
1582811660415,3051453,0,2,0
1582811660515,3053647,0,2,0
1582811660615,3053501,0,2,0
1582811660715,3052500,0,2,0
1582811660815,3051863,0,2,0
1582811660915,3051355,0,2,0
1582811661015,3050496,0,2,0
1582811661115,3050085,0,2,0
1582811661216,3049638,0,2,0
1582811661316,3049649,0,2,0
1582811661416,3049175,0,2,0
1582811661516,3047333,0,2,0
1582811661616,3046177,0,2,0
1582811661717,3045710,0,2,0
1582811661816,3044741,0,2,0
1582811661916,3044648,0,2,0
1582811662017,3044864,0,2,0
1582811662116,3044983,0,2,0
1582811662216,3045518,0,2,0
1582811662317,3045811,0,2,0
1582811662416,3043884,0,2,0
1582811662516,3042251,0,2,0
1582811662616,3041291,0,2,0
1582811662717,3040431,0,2,0
1582811662816,3040557,0,2,0
1582811662917,3041208,0,2,0
1582811663017,3041981,0,2,0
1582811663116,3042943,0,2,0
1582811663217,3043156,0,2,0
1582811663317,3042229,0,2,0
1582811663417,3039826,0,2,0
1582811663517,3038068,0,2,0
1582811663617,3037812,0,2,0
1582811663717,3038801,0,2,0
1582811663817,3039926,0,2,0
1582811663917,3040401,0,2,0
1582811664017,3041200,0,2,0
1582811664118,3042672,0,2,0
1582811664218,3044397,0,2,0
1582811664317,3044056,0,2,0
1582811664418,3042804,0,2,0
1582811664518,3041525,0,2,0
1582811664618,3040712,0,2,0
1582811664718,3039906,0,2,0
1582811664818,3039236,0,2,0
1582811664918,3039131,0,2,0
1582811665018,3039350,0,2,0
1582811665118,3040268,0,2,0
1582811665218,3041141,0,2,0
1582811665319,3039973,0,2,0
1582811665418,3038747,0,2,0
1582811665518,3038180,0,2,0
1582811665619,3035874,0,2,0
1582811665718,3033788,0,2,0
1582811665818,3035709,0,2,0
1582811665919,3041732,0,2,0
1582811666018,3044373,0,2,0
1582811666120,3046126,0,2,0
1582811666220,3047286,0,2,0
1582811666320,3049977,0,2,0
1582811666420,3051168,0,2,0
1582811666520,3051585,0,2,0
1582811666620,3052002,0,2,0
1582811666720,3052631,0,2,0
1582811666820,3052822,0,2,0
1582811666920,3053075,0,2,0
1582811667019,3050838,0,2,0
1582811667119,3048476,0,2,0
1582811667219,3046797,0,2,0
1582811667319,3045166,0,2,0
1582811667420,3044011,0,2,0
1582811667519,3043634,0,2,0
1582811667620,3043029,0,2,0
1582811667720,3042655,0,2,0
1582811667820,3041569,0,2,0
1582811667920,3038822,0,2,0
1582811668020,3036768,0,2,0
1582811668120,3035568,0,2,0
1582811668220,3034784,0,2,0
1582811668321,3034686,0,2,0
1582811668420,3034974,0,2,0
1582811668520,3035605,0,2,0
1582811668621,3035818,0,2,0
1582811668720,3034651,0,2,0
1582811668821,3032507,0,2,0
1582811668921,3031625,0,2,0
1582811669021,3030454,0,2,0
1582811669121,3028167,0,2,0
1582811669221,3026621,0,2,0
1582811669321,3024577,0,2,0
1582811669421,3024872,0,2,0
1582811669521,3028810,0,2,0
1582811669621,3032369,0,2,0
1582811669721,3035788,0,2,0
1582811669821,3038863,0,2,0
1582811669921,3040460,0,2,0
1582811670021,3041190,0,2,0
1582811670121,3040708,0,2,0
1582811670221,3039936,0,2,0
1582811670321,3038823,0,2,0
1582811670422,3035228,0,2,0
1582811670522,3032191,0,2,0
1582811670622,3029802,0,2,0
