timestamp,ppg,label,stage,hand
1582028391044,2657357,0,0,0
1582028391144,2657321,0,0,0
1582028391245,2657279,0,0,0
1582028391344,2657252,0,0,0
1582028391445,2657305,0,0,0
1582028391545,2657288,0,0,0
1582028391645,2657233,0,0,0
1582028391745,2657309,0,0,0
1582028391845,2657312,0,0,0
1582028391945,2657181,0,0,0
1582028392045,2657234,0,0,0
1582028392145,2657339,0,0,0
1582028392245,2657344,0,0,0
1582028392346,2657331,0,0,0
1582028392446,2657391,0,0,0
1582028392546,2657244,0,0,0
1582028392666,2657353,0,0,0
1582028392747,2657139,0,0,0
1582028392846,2657404,0,0,0
1582028392946,2657303,0,0,0
1582028393047,2657249,0,0,0
1582028393149,2657344,0,0,0
1582028393246,2657293,0,0,0
1582028393347,2657294,0,0,0
1582028393447,2657276,0,0,0
1582028393548,2657285,0,0,0
1582028393648,2657270,0,0,0
1582028393748,2657294,0,0,0
1582028393847,2657164,0,0,0
1582028393948,2657331,0,0,0
1582028394048,2657262,0,0,0
1582028394148,2657230,0,0,0
1582028394248,2657264,0,0,0
1582028394348,2657267,0,0,0
1582028394448,2657236,0,0,0
1582028394548,2657283,0,0,0
1582028394648,2657386,0,0,0
1582028394748,2657221,0,0,0
1582028394848,2657342,0,0,0
1582028394948,2657317,0,0,0
1582028395048,2657191,0,0,0
1582028395149,2657279,0,0,0
1582028395248,2657135,0,0,0
1582028395348,2657240,0,0,0
1582028395449,2657180,0,0,0
1582028395548,2657276,0,0,0
1582028395649,2657331,0,0,0
1582028395749,2657290,0,0,0
1582028395849,2657230,0,0,0
1582028395948,2657327,0,0,0
1582028396048,2657232,0,0,0
1582028396148,2657388,0,0,0
1582028396248,2657296,0,0,0
1582028396348,2657308,0,0,0
1582028396448,2657264,0,0,0
1582028396548,2657240,0,0,0
1582028396648,2657327,0,0,0
1582028396748,2657244,0,0,0
1582028396848,2657348,0,0,0
1582028396948,2657255,0,0,0
1582028397048,2657342,0,0,0
1582028397148,2657274,0,0,0
1582028397249,2657289,0,0,0
1582028397348,2657286,0,0,0
1582028397449,2657266,0,0,0
1582028397549,2657312,0,0,0
1582028397649,2657228,0,0,0
1582028397749,2657290,0,0,0
1582028397849,2657309,0,0,0
1582028397949,2657404,0,0,0
1582028398049,2657312,0,0,0
1582028398149,2657205,0,0,0
1582028398249,2657197,0,0,0
1582028398349,2657313,0,0,0
1582028398450,2657266,0,0,0
1582028398549,2657376,0,0,0
1582028398649,2657364,0,0,0
1582028398750,2657257,0,0,0
1582028398849,2657258,0,0,0
1582028398950,2657261,0,0,0
1582028399050,2657342,0,0,0
1582028399150,2657112,0,0,0
1582028399251,2661905,0,0,0
1582028399351,3804951,0,0,0
1582028399450,2182729,0,0,0
1582028399550,1946409,0,0,0
1582028399651,1918482,0,0,0
1582028399751,1913927,0,0,0
1582028399850,1912755,0,0,0
1582028399951,1912187,0,0,0
1582028400051,1911766,0,0,0
1582028400151,1911672,0,0,0
1582028400258,1911577,0,0,0
1582028400488,1912295,0,0,0
1582028400564,1917479,0,0,0
1582028400662,1925084,0,0,0
1582028400753,2080311,0,0,0
1582028400852,2861100,0,0,0
1582028400953,3219166,0,0,0
1582028401052,3134541,0,0,0
1582028401155,3238583,0,0,0
1582028401252,2953830,0,0,0
1582028401355,2942221,0,0,0
1582028401455,2862694,0,0,0
1582028401555,2871168,0,0,0
1582028401655,2878277,0,0,0
1582028401754,2884523,0,0,0
1582028401854,2888660,0,0,0
1582028401957,2889007,0,0,0
1582028402055,2887458,0,0,0
1582028402155,2888334,0,0,0
1582028402254,2890658,0,0,0
1582028402369,2896158,0,0,0
1582028402455,2946355,0,0,0
1582028402555,2974238,0,0,0
1582028402688,2889206,0,0,0
1582028402766,2883076,0,0,0
1582028402856,2890975,0,0,0
1582028402955,2935361,0,0,0
1582028403291,2908074,0,0,0
1582028403364,2906300,0,0,0
1582028403516,2903473,0,0,0
1582028403586,2908098,0,0,0
1582028403654,2915350,0,0,0
1582028403755,2917770,0,0,0
1582028403855,2923809,0,0,0
1582028403955,2927228,0,0,0
1582028404055,2944393,0,0,0
1582028404163,2952685,0,0,0
1582028404254,2958518,0,0,0
1582028404355,2963827,0,0,0
1582028404462,2963064,0,0,0
1582028404555,2954579,0,0,0
1582028404655,2945544,0,0,0
1582028404757,2943218,0,0,0
1582028404855,2940246,0,0,0
1582028404955,2946218,0,0,0
1582028405056,2953677,0,0,0
1582028405158,2965983,0,0,0
1582028405255,2974162,0,0,0
1582028405355,2974249,0,0,0
1582028405456,2978014,0,0,0
1582028405555,2980179,0,0,0
1582028405656,2981861,0,0,0
1582028405756,2983243,0,0,0
1582028405856,2985488,0,0,0
1582028405959,2983950,0,0,0
1582028406056,2981233,0,0,0
1582028406157,2981748,0,0,0
1582028406256,2982285,0,0,0
1582028406356,2997303,0,0,0
1582028406459,2993852,0,0,0
1582028406557,2977126,0,0,0
1582028406657,3000601,0,0,0
1582028406756,3018759,0,0,0
1582028406859,3011015,0,0,0
1582028406957,3031526,0,0,0
1582028407057,3183513,0,0,0
1582028407158,3235659,0,0,0
1582028407256,3304380,0,0,0
1582028407357,3368475,0,0,0
1582028407458,3308440,0,0,0
1582028407557,3308314,0,0,0
1582028407657,3240777,0,0,0
1582028407757,3185198,0,0,0
1582028407857,3123441,0,0,0
1582028407960,3151382,0,0,0
1582028408108,3229213,0,0,0
1582028408165,2606895,0,0,0
1582028408256,2314958,0,0,0
1582028408358,2303169,0,0,0
1582028408459,2262587,0,0,0
1582028408559,2184032,0,0,0
1582028408659,2079613,0,0,0
1582028408758,2121733,0,0,0
1582028408858,2167771,0,0,0
1582028408959,2096953,0,0,0
1582028409058,2055163,0,0,0
1582028409158,2022733,0,0,0
1582028409258,2029595,0,0,0
1582028409358,2058020,0,0,0
1582028409458,2048778,0,0,0
1582028409558,2028368,0,0,0
1582028409659,2031613,0,0,0
1582028409759,2031810,0,0,0
1582028409859,2029863,0,0,0
1582028409959,2033811,0,0,0
1582028410058,2040768,0,0,0
1582028410159,2021564,0,0,0
1582028410258,2031201,0,0,0
1582028410359,2015587,0,0,0
1582028410460,1990933,0,0,0
1582028410559,1963899,0,0,0
1582028410659,1945890,0,0,0
1582028410759,1936267,0,0,0
1582028410859,1946224,0,0,0
1582028410982,1950978,0,0,0
1582028411060,1962370,0,0,0
1582028411160,1979810,0,0,0
1582028411259,2042577,0,0,0
1582028411359,2074043,0,0,0
1582028411461,2038778,0,0,0
1582028411562,1988350,0,0,0
1582028411661,1989948,0,0,0
1582028411761,1992610,0,0,0
1582028411860,2010017,0,0,0
1582028411961,1995354,0,0,0
1582028412060,1995721,0,0,0
1582028412160,2028131,0,0,0
1582028412260,2018713,0,0,0
1582028412360,2122762,0,0,0
1582028412460,3129751,0,0,0
1582028412561,2823740,0,0,0
1582028412660,2807109,0,0,0
1582028412760,2885650,0,0,0
1582028412860,3046869,0,0,0
1582028412960,3203987,0,0,0
1582028413081,3300874,0,0,0
1582028413229,3073948,0,0,0
1582028413279,2722774,0,0,0
1582028413377,2460031,0,0,0
1582028413463,2841720,0,0,0
1582028413560,3330422,0,0,0
1582028413660,2902400,0,0,0
1582028413763,2875104,0,0,0
1582028413864,2875399,0,0,0
1582028413962,2872502,0,0,0
1582028414062,2873394,0,0,0
1582028414161,2888699,0,0,0
1582028414262,2901432,0,0,0
1582028414364,3026261,0,0,0
1582028414462,2985570,0,0,0
1582028414562,2911058,0,0,0
1582028414662,2907789,0,0,0
1582028414762,2973284,0,0,0
1582028414862,3003900,0,0,0
1582028414962,3056427,0,0,0
1582028415062,3003436,0,0,0
1582028415163,3038978,0,0,0
1582028415262,2959988,0,0,0
1582028415362,2980745,0,0,0
1582028415463,3030011,0,0,0
1582028415563,3053769,0,0,0
1582028415663,3092108,0,0,0
1582028415763,3111501,0,0,0
1582028415863,3100718,0,0,0
1582028415963,3134127,0,0,0
1582028416063,3317041,0,0,0
1582028416164,3318972,0,0,0
1582028416262,3009284,0,0,0
1582028416363,2894019,0,0,0
1582028416464,2895566,0,0,0
1582028416563,2904084,0,0,0
1582028416664,2901778,0,0,0
1582028416764,2901917,0,0,0
1582028416864,2908073,0,0,0
1582028416964,2913988,0,0,0
1582028417069,2991972,0,0,0
1582028417171,3436280,0,0,0
1582028417341,3365101,0,0,0
1582028417377,3043080,0,0,0
1582028417464,3223927,0,0,0
1582028417565,3334687,0,0,0
1582028417666,3411885,0,0,0
1582028417765,2975576,0,0,0
1582028417865,3173008,0,0,0
1582028417972,2950268,0,0,0
1582028418064,2891630,0,0,0
1582028418164,2885440,0,0,0
1582028418263,2884348,0,0,0
1582028418364,2881810,0,0,0
1582028418464,2892477,0,0,0
1582028418564,2908976,0,0,0
1582028418665,2921561,0,0,0
1582028418764,2928904,0,0,0
1582028418865,2928886,0,0,0
1582028418964,2929771,0,0,0
1582028419064,2935452,0,0,0
1582028419165,3046850,0,0,0
1582028419264,3389641,0,0,0
1582028419364,3384913,0,0,0
1582028419465,3403567,0,0,0
1582028419565,3365938,0,0,0
1582028419665,3334553,0,0,0
1582028419765,3434646,0,0,0
1582028419865,3466483,0,0,0
1582028419965,3441259,0,0,0
1582028420065,3448083,0,0,0
1582028420165,3442371,0,0,0
1582028420264,3405607,0,0,0
1582028420365,3406902,0,0,0
1582028420465,3377096,0,0,0
1582028420565,3412931,0,0,0
1582028420666,3400707,0,0,0
1582028420766,3363743,0,0,0
1582028420865,3241903,0,0,0
1582028420966,3270190,0,0,0
1582028421066,3383909,0,0,0
1582028421168,3387022,0,0,0
1582028421265,3165472,0,0,0
1582028421366,3072216,0,0,0
1582028421468,3262941,0,0,0
1582028421567,3158938,0,0,0
1582028421666,3040480,0,0,0
1582028421766,2907879,0,0,0
1582028421867,2855135,0,0,0
1582028421968,3012188,0,0,0
1582028422067,3188609,0,0,0
1582028422167,3356020,0,0,0
1582028422267,3302814,0,0,0
1582028422367,3268048,0,0,0
1582028422467,3300208,0,0,0
1582028422567,3408411,0,0,0
1582028422667,3413587,0,0,0
1582028422767,3274725,0,0,0
1582028422867,3100219,0,0,0
1582028422967,3091394,0,0,0
1582028423068,3050619,0,0,0
1582028423173,3125060,0,0,0
1582028423267,3416310,0,0,0
1582028423393,3216826,0,0,0
1582028423468,3088298,0,0,0
1582028423568,3334836,0,0,0
1582028423668,3199850,0,0,0
1582028423768,3258026,0,0,0
1582028423868,3473044,0,0,0
1582028423968,3230253,0,0,0
1582028424099,3075743,0,0,0
1582028424184,2976115,0,0,0
1582028424185,2976115,0,0,0
1582028424271,2966021,0,0,0
1582028424418,3436813,0,0,0
1582028424469,2980224,0,0,0
1582028424569,3055014,0,0,0
1582028424670,2920588,0,0,0
1582028424771,2964271,0,0,0
1582028424871,2964886,0,0,0
1582028424970,2969615,0,0,0
1582028425071,2971750,0,0,0
1582028425173,2970420,0,0,0
1582028425271,2968359,0,0,0
1582028425371,2972677,0,0,0
1582028425472,2986607,0,0,0
1582028425575,2987877,0,0,0
1582028425671,2995082,0,0,0
1582028425770,3000373,0,0,0
1582028425913,2998831,0,0,0
1582028425970,3011489,0,0,0
1582028426069,3121684,0,0,0
1582028426169,3063369,0,0,0
1582028426270,3205592,0,0,0
1582028426371,3322405,0,0,0
1582028426470,3088378,0,0,0
1582028426578,3331690,0,0,0
1582028426670,3363799,0,0,0
1582028426770,3425433,0,0,0
1582028426870,3461757,0,0,0
1582028426970,3408504,0,0,0
1582028427070,3381863,0,0,0
1582028427170,3440454,0,0,0
1582028427270,3215738,0,0,0
1582028427370,2992790,0,0,0
1582028427470,2958862,0,0,0
1582028427571,3369477,0,0,0
1582028427670,3488384,0,0,0
1582028427770,3243526,0,0,0
1582028427871,2959556,0,0,0
1582028427971,2950802,0,0,0
1582028428071,2952442,0,0,0
1582028428171,2947879,0,0,0
1582028428270,2940534,0,0,0
1582028428370,2932975,0,0,0
1582028428471,2926654,0,0,0
1582028428571,2932307,0,0,0
1582028428671,2944136,0,0,0
1582028428771,3181553,0,0,0
1582028428871,2956185,0,0,0
1582028428971,2949010,0,0,0
1582028429071,2948255,0,0,0
1582028429171,2946389,0,0,0
1582028429271,2942998,0,0,0
1582028429371,2939745,0,0,0
1582028429471,2933468,0,0,0
1582028429571,2927608,0,0,0
1582028429672,2925893,0,0,0
1582028429771,2925781,0,0,0
1582028429871,2932014,0,0,0
1582028429972,2938196,0,0,0
1582028430072,2941331,0,0,0
1582028430172,2944112,0,0,0
1582028430272,2944502,0,0,0
1582028430372,2944329,0,0,0
1582028430472,2941848,0,0,0
1582028430573,2945913,0,0,0
1582028430672,2953098,0,0,0
1582028430772,2960746,0,0,0
1582028430872,2966661,0,0,0
1582028430972,3032734,0,0,0
1582028431072,2995594,0,0,0
1582028431173,2981680,0,0,0
1582028431272,2985853,0,0,0
1582028431372,2983272,0,0,0
1582028431473,2981276,0,0,0
1582028431573,2979380,0,0,0
1582028431673,2971874,0,0,0
1582028431773,2967824,0,0,0
1582028431873,2963553,0,0,0
1582028431973,2954371,0,0,0
1582028432073,2956259,0,0,0
1582028432173,3109186,0,0,0
1582028432273,3418205,0,0,0
1582028432374,3417352,0,0,0
1582028432473,3282936,0,0,0
1582028432573,3435623,0,0,0
1582028432674,3368090,0,0,0
1582028432774,3181792,0,0,0
1582028432873,2926500,0,0,0
1582028432974,2922230,0,0,0
1582028433074,2920382,0,0,0
1582028433174,2922847,0,0,0
1582028433274,3214784,0,0,0
1582028433374,2908534,0,0,0
1582028433474,2899252,0,0,0
1582028433575,3118000,0,0,0
1582028433674,3377897,0,0,0
1582028433774,3451691,0,0,0
1582028433874,3112384,0,0,0
1582028433975,2930666,0,0,0
1582028434075,2908147,0,0,0
1582028434175,2904588,0,0,0
1582028434274,2902857,0,0,0
1582028434374,2903028,0,0,0
1582028434475,2899814,0,0,0
1582028434575,2905330,0,0,0
1582028434675,3284865,0,0,0
1582028434775,3396951,0,0,0
1582028434875,3373565,0,0,0
1582028434975,3399343,0,0,0
1582028435076,3425042,0,0,0
1582028435175,2981321,0,0,0
1582028435274,2920525,0,0,0
1582028435376,2923435,0,0,0
1582028435475,2924706,0,0,0
1582028435576,2932190,0,0,0
1582028435676,2932988,0,0,0
1582028435776,2931880,0,0,0
1582028435876,2921105,0,0,0
1582028435979,2935356,0,0,0
1582028436076,2935791,0,0,0
1582028436176,2942749,0,0,0
1582028436275,2924969,0,0,0
1582028436376,3290730,0,0,0
1582028436478,3044881,0,0,0
1582028436577,2920366,0,0,0
1582028436676,2931709,0,0,0
1582028436776,2921793,0,0,0
1582028436876,2917079,0,0,0
1582028436976,2917625,0,0,0
1582028437091,2925890,0,0,0
1582028437219,2932354,0,0,0
1582028437277,2934982,0,0,0
1582028437376,2931889,0,0,0
1582028437477,2934979,0,0,0
1582028437576,2875248,0,0,0
1582028437678,2898248,0,0,0
1582028437778,2978548,0,0,0
1582028437903,2979374,0,0,0
1582028437978,2975730,0,0,0
1582028438078,2968107,0,0,0
1582028438178,2968136,0,0,0
1582028438278,2969245,0,0,0
1582028438379,2965524,0,0,0
1582028438479,2967943,0,0,0
1582028438578,2970700,0,0,0
1582028438678,2972324,0,0,0
1582028438778,2969921,0,0,0
1582028438878,2966075,0,0,0
1582028438978,2963860,0,0,0
1582028439078,2961072,0,0,0
1582028439178,2960182,0,0,0
1582028439278,2958264,0,0,0
1582028439378,2954503,0,0,0
1582028439478,2957308,0,0,0
1582028439578,2951899,0,0,0
1582028439678,2946277,0,0,0
1582028439778,2940122,0,0,0
1582028439878,2934925,0,0,0
1582028439978,2930059,0,0,0
1582028440078,2925294,0,0,0
1582028440179,2921688,0,0,0
1582028440278,2918319,0,0,0
1582028440378,2914498,0,0,0
1582028440479,2911388,0,0,0
1582028440579,2913267,0,0,0
1582028440679,2920840,0,0,0
1582028440779,2923719,0,0,0
1582028440879,2926221,0,0,0
1582028440979,2926818,0,0,0
1582028441080,2927620,0,0,0
1582028441180,2923660,0,0,0
1582028441279,2919246,0,0,0
1582028441379,2915399,0,0,0
1582028441479,2910411,0,0,0
1582028441580,2903924,0,0,0
1582028441680,2904688,0,0,0
1582028441780,2909014,0,0,0
1582028441879,2912336,0,0,0
1582028441980,2915802,0,0,0
1582028442080,2915501,0,0,0
1582028442180,2910070,0,0,0
1582028442279,2907139,0,0,0
1582028442383,2903657,0,0,0
1582028442480,2898331,0,0,0
1582028442580,2894418,0,0,0
1582028442681,2890890,0,0,0
1582028442781,2887443,0,0,0
1582028442881,2880859,0,0,0
1582028442981,2875549,0,0,0
1582028443080,2871819,0,0,0
1582028443183,2868339,0,0,0
1582028443281,2864148,0,0,0
1582028443382,2862067,0,0,0
1582028443482,2860010,0,0,0
1582028443584,2855550,0,0,0
1582028443682,2852697,0,0,0
1582028443782,2851398,0,0,0
1582028443881,2849503,0,0,0
1582028443982,2848257,0,0,0
1582028444082,2847615,0,0,0
1582028444181,2847044,0,0,0
1582028444280,2844251,0,0,0
1582028444382,2841937,0,0,0
1582028444481,2841232,0,0,0
1582028444582,2840347,0,0,0
1582028444682,2839353,0,0,0
1582028444782,2838914,0,0,0
1582028444882,2839982,0,0,0
1582028444982,2839127,0,0,0
1582028445082,2837507,0,1,0
1582028445182,2836797,0,1,0
1582028445282,2836655,0,1,0
1582028445382,2837246,0,1,0
1582028445482,2838342,0,1,0
1582028445583,2838902,0,1,0
1582028445682,2838351,0,1,0
1582028445782,2837764,0,1,0
1582028445883,2838128,0,1,0
1582028445983,2838863,0,1,0
1582028446083,2839092,0,1,0
1582028446183,2839481,0,1,0
1582028446282,2840076,0,1,0
1582028446382,2840165,0,1,0
1582028446483,2840659,0,1,0
1582028446583,2841390,0,1,0
1582028446683,2842240,0,1,0
1582028446783,2843216,0,1,0
1582028446883,2844140,0,1,0
1582028446983,2844135,0,1,0
1582028447084,2844666,0,1,0
1582028447202,2845128,0,1,0
1582028447283,2846653,0,1,0
1582028447384,2848352,0,1,0
1582028447483,2849551,0,1,0
1582028447584,2849863,0,1,0
1582028447684,2849930,0,1,0
1582028447783,2850087,0,1,0
1582028447884,2849824,0,1,0
1582028447984,2849940,0,1,0
1582028448084,2850633,0,1,0
1582028448184,2850942,0,1,0
1582028448283,2850248,0,1,0
1582028448384,2850184,0,1,0
1582028448484,2850114,0,1,0
1582028448585,2850371,0,1,0
1582028448685,2850811,0,1,0
1582028448784,2851232,0,1,0
1582028448885,2850917,0,1,0
1582028448984,2851597,0,1,0
1582028449084,2851874,0,1,0
1582028449185,2852041,0,1,0
1582028449284,2852370,0,1,0
1582028449384,2852729,0,1,0
1582028449485,2852679,0,1,0
1582028449585,2852246,0,1,0
1582028449685,2852216,0,1,0
1582028449785,2852319,0,1,0
1582028449885,2852512,0,1,0
1582028449985,2849138,0,1,0
1582028450086,2846406,0,1,0
1582028450185,2838229,0,1,0
1582028450285,2829832,0,1,0
1582028450385,2826775,0,1,0
1582028450485,2834786,0,1,0
1582028450587,2842982,0,1,0
1582028450686,2847135,0,1,0
1582028450785,2856831,0,1,0
1582028450885,2870210,0,1,0
1582028450988,2889500,0,1,0
1582028451087,2899782,0,1,0
1582028451187,2900869,0,1,0
1582028451286,2899990,0,1,0
1582028451386,2896219,0,1,0
1582028451488,2894655,0,1,0
1582028451587,2893609,0,1,0
1582028451686,2893142,0,1,0
1582028451786,2893276,0,1,0
1582028451887,2893736,0,1,0
1582028451988,2894643,0,1,0
1582028452087,2895011,0,1,0
1582028452187,2895383,0,1,0
1582028452286,2895575,0,1,0
1582028452387,2895638,0,1,0
1582028452487,2895954,0,1,0
1582028452587,2896096,0,1,0
1582028452689,2896381,0,1,0
1582028452788,2896022,0,1,0
1582028452887,2895493,0,1,0
1582028452987,2895404,0,1,0
1582028453088,2895089,0,1,0
1582028453188,2895019,0,1,0
1582028453287,2895235,0,1,0
1582028453388,2895446,0,1,0
1582028453487,2895633,0,1,0
1582028453588,2895703,0,1,0
1582028453688,2894946,0,1,0
1582028453788,2894536,0,1,0
1582028453888,2893330,0,1,0
1582028453988,2891922,0,1,0
1582028454088,2889512,0,1,0
1582028454188,2889234,0,1,0
1582028454287,2889127,0,1,0
1582028454388,2893965,0,1,0
1582028454488,2899912,0,1,0
1582028454589,2901881,0,1,0
1582028454688,2904235,0,1,0
1582028454788,2907147,0,1,0
1582028454888,2910674,0,1,0
1582028454988,2913134,0,1,0
1582028455088,2914767,0,1,0
1582028455189,2916612,0,1,0
1582028455288,2918132,0,1,0
1582028455388,2918608,0,1,0
1582028455489,2917961,0,1,0
1582028455589,2917760,0,1,0
1582028455689,2917535,0,1,0
1582028455789,2917255,0,1,0
1582028455889,2917307,0,1,0
1582028455989,2917375,0,1,0
1582028456090,2917951,0,1,0
1582028456189,2918219,0,1,0
1582028456288,2917319,0,1,0
1582028456389,2917027,0,1,0
1582028456490,2917132,0,1,0
1582028456590,2916967,0,1,0
1582028456690,2917288,0,1,0
1582028456790,2917794,0,1,0
1582028456890,2918704,0,1,0
1582028456990,2919419,0,1,0
1582028457090,2918932,0,1,0
1582028457190,2918798,0,1,0
1582028457289,2919294,0,1,0
1582028457390,2919198,0,1,0
1582028457490,2919759,0,1,0
1582028457591,2921943,0,1,0
1582028457690,2926101,0,1,0
1582028457790,2929699,0,1,0
1582028457891,2929821,0,1,0
1582028457991,2929892,0,1,0
1582028458090,2929061,0,1,0
1582028458191,2927918,0,1,0
1582028458290,2927197,0,1,0
1582028458390,2926591,0,1,0
1582028458491,2925663,0,1,0
1582028458591,2923672,0,1,0
1582028458691,2921992,0,1,0
1582028458791,2921013,0,1,0
1582028458891,2919569,0,1,0
1582028458991,2918642,0,1,0
1582028459091,2917848,0,1,0
1582028459191,2917043,0,1,0
1582028459291,2914730,0,1,0
1582028459391,2912783,0,1,0
1582028459491,2911736,0,1,0
1582028459591,2910208,0,1,0
1582028459692,2909167,0,1,0
1582028459791,2908278,0,1,0
1582028459892,2906286,0,1,0
1582028459992,2904256,0,1,0
1582028460092,2903170,0,1,0
1582028460192,2902178,0,1,0
1582028460292,2901189,0,1,0
1582028460392,2900865,0,1,0
1582028460492,2899106,0,1,0
1582028460593,2897075,0,1,0
1582028460692,2896017,0,1,0
1582028460792,2894973,0,1,0
1582028460891,2894324,0,1,0
1582028460991,2894070,0,1,0
1582028461091,2893508,0,1,0
1582028461192,2891189,0,1,0
1582028461291,2889810,0,1,0
1582028461391,2889067,0,1,0
1582028461492,2888429,0,1,0
1582028461592,2888498,0,1,0
1582028461691,2888864,0,1,0
1582028461792,2889359,0,1,0
1582028461892,2887428,0,1,0
1582028461992,2885590,0,1,0
1582028462092,2885317,0,1,0
1582028462192,2885032,0,1,0
1582028462292,2885151,0,1,0
1582028462392,2885878,0,1,0
1582028462492,2886964,0,1,0
1582028462592,2887962,0,1,0
1582028462694,2888801,0,1,0
1582028462792,2887438,0,1,0
1582028462892,2885818,0,1,0
1582028462993,2885690,0,1,0
1582028463092,2885367,0,1,0
1582028463192,2885675,0,1,0
1582028463293,2886455,0,1,0
1582028463392,2887353,0,1,0
1582028463492,2888158,0,1,0
1582028463593,2889059,0,1,0
1582028463693,2887865,0,1,0
1582028463793,2886400,0,1,0
1582028463893,2886482,0,1,0
1582028463993,2886416,0,1,0
1582028464093,2886548,0,1,0
1582028464193,2887425,0,1,0
1582028464293,2888477,0,1,0
1582028464393,2889355,0,1,0
1582028464494,2890522,0,1,0
1582028464594,2890213,0,1,0
1582028464693,2889189,0,1,0
1582028464794,2889308,0,1,0
1582028464893,2889519,0,1,0
1582028464993,2890013,0,1,0
1582028465094,2890846,0,1,0
1582028465194,2891765,0,1,0
1582028465294,2892689,0,1,0
1582028465394,2893573,0,1,0
1582028465494,2892875,0,1,0
1582028465594,2891858,0,1,0
1582028465694,2891906,0,1,0
1582028465794,2891770,0,1,0
1582028465894,2891471,0,1,0
1582028465995,2891702,0,1,0
1582028466095,2892127,0,1,0
1582028466194,2892388,0,1,0
1582028466295,2891829,0,1,0
1582028466394,2890609,0,1,0
1582028466495,2890172,0,1,0
1582028466595,2889878,0,1,0
1582028466695,2889629,0,1,0
1582028466795,2889850,0,1,0
1582028466895,2890281,0,1,0
1582028466995,2890706,0,1,0
1582028467095,2889923,0,1,0
1582028467195,2889945,0,1,0
1582028467295,2890304,0,1,0
1582028467395,2890502,0,1,0
1582028467495,2891162,0,1,0
1582028467596,2891959,0,1,0
1582028467695,2892265,0,1,0
1582028467796,2891619,0,1,0
1582028467896,2891871,0,1,0
1582028467998,2892479,0,1,0
1582028468096,2892977,0,1,0
1582028468196,2893920,0,1,0
1582028468296,2895092,0,1,0
1582028468396,2895408,0,1,0
1582028468496,2895128,0,1,0
1582028468596,2895750,0,1,0
1582028468696,2896429,0,1,0
1582028468796,2897592,0,1,0
1582028468896,2898772,0,1,0
1582028468997,2900302,0,1,0
1582028469097,2901384,0,1,0
1582028469198,2901504,0,1,0
1582028469297,2901432,0,1,0
1582028469397,2901902,0,1,0
1582028469497,2902520,0,1,0
1582028469597,2903162,0,1,0
1582028469697,2904196,0,1,0
1582028469797,2905266,0,1,0
1582028469897,2906377,0,1,0
1582028470000,2907328,0,1,0
1582028470097,2907403,0,1,0
1582028470198,2907302,0,1,0
1582028470297,2907583,0,1,0
1582028470397,2907994,0,1,0
1582028470498,2908565,0,1,0
1582028470598,2909425,0,1,0
1582028470698,2910333,0,1,0
1582028470799,2914125,0,1,0
1582028470898,2916529,0,1,0
1582028470998,2918016,0,1,0
1582028471099,2918001,0,1,0
1582028471199,2917724,0,1,0
1582028471299,2917687,0,1,0
1582028471399,2917439,0,1,0
1582028471499,2917755,0,1,0
1582028471599,2918386,0,1,0
1582028471699,2918999,0,1,0
1582028471799,2919462,0,1,0
1582028471900,2919518,0,1,0
1582028472000,2919067,0,1,0
1582028472100,2919006,0,1,0
1582028472200,2919073,0,1,0
1582028472300,2919416,0,1,0
1582028472400,2919994,0,1,0
1582028472500,2920691,0,1,0
1582028472601,2921486,0,1,0
1582028472700,2921311,0,1,0
1582028472800,2920842,0,1,0
1582028472901,2920673,0,1,0
1582028473001,2920773,0,1,0
1582028473100,2920705,0,1,0
1582028473201,2921191,0,1,0
1582028473302,2921738,0,1,0
1582028473401,2922280,0,1,0
1582028473501,2922096,0,1,0
1582028473601,2921201,0,1,0
1582028473701,2920958,0,1,0
1582028473802,2920210,0,1,0
1582028473901,2919667,0,1,0
1582028474001,2919424,0,1,0
1582028474102,2919107,0,1,0
1582028474201,2918860,0,1,0
1582028474301,2917762,0,1,0
1582028474401,2916519,0,1,0
1582028474501,2915767,0,1,0
1582028474603,2914932,0,1,0
1582028474703,2914293,0,1,0
1582028474803,2913973,0,1,0
1582028474903,2913016,0,1,0
1582028475003,2911480,0,1,0
1582028475103,2910595,0,1,0
1582028475202,2910361,0,1,0
1582028475303,2911854,0,1,0
1582028475402,2912870,0,1,0
1582028475502,2913792,0,1,0
1582028475603,2913619,0,1,0
1582028475702,2913271,0,1,0
1582028475802,2911686,0,1,0
1582028475901,2910323,0,1,0
1582028476001,2908906,0,1,0
1582028476101,2908011,0,1,0
1582028476201,2906213,0,1,0
1582028476301,2903982,0,1,0
1582028476401,2902717,0,1,0
1582028476502,2901576,0,1,0
1582028476602,2900617,0,1,0
1582028476701,2900272,0,1,0
1582028476802,2900287,0,1,0
1582028476901,2898897,0,1,0
1582028477002,2897163,0,1,0
1582028477102,2896060,0,1,0
1582028477207,2895053,0,1,0
1582028477302,2894614,0,1,0
1582028477402,2894641,0,1,0
1582028477502,2894849,0,1,0
1582028477602,2895145,0,1,0
1582028477702,2895466,0,1,0
1582028477802,2895814,0,1,0
1582028477902,2894330,0,1,0
1582028478003,2892830,0,1,0
1582028478102,2892346,0,1,0
1582028478202,2891825,0,1,0
1582028478303,2891830,0,1,0
1582028478402,2892347,0,1,0
1582028478502,2893086,0,1,0
1582028478603,2893705,0,1,0
1582028478703,2894627,0,1,0
1582028478803,2894204,0,1,0
1582028478903,2892780,0,1,0
1582028479003,2892782,0,1,0
1582028479103,2893094,0,1,0
1582028479203,2893451,0,1,0
1582028479303,2894466,0,1,0
1582028479403,2895544,0,1,0
1582028479503,2896785,0,1,0
1582028479604,2898141,0,1,0
1582028479703,2898576,0,1,0
1582028479804,2897542,0,1,0
1582028479903,2897097,0,1,0
1582028480004,2897172,0,1,0
1582028480104,2897258,0,1,0
1582028480204,2897737,0,1,0
1582028480304,2898911,0,1,0
1582028480404,2899929,0,1,0
1582028480504,2901195,0,1,0
1582028480604,2902442,0,1,0
1582028480705,2902383,0,1,0
1582028480804,2901584,0,1,0
1582028480904,2902702,0,1,0
1582028481005,2904743,0,1,0
1582028481104,2906163,0,1,0
1582028481205,2907001,0,1,0
1582028481305,2906503,0,1,0
1582028481404,2906701,0,1,0
1582028481505,2907170,0,1,0
1582028481605,2906938,0,1,0
1582028481705,2905539,0,1,0
1582028481805,2905304,0,1,0
1582028481905,2905583,0,1,0
1582028482008,2905438,0,1,0
1582028482105,2905823,0,1,0
1582028482205,2906706,0,1,0
1582028482305,2907552,0,1,0
1582028482405,2909694,0,1,0
1582028482506,2910771,0,1,0
1582028482605,2911250,0,1,0
1582028482705,2912362,0,1,0
1582028482807,2913064,0,1,0
1582028482905,2913348,0,1,0
1582028483006,2914060,0,1,0
1582028483106,2914703,0,1,0
1582028483208,2915084,0,1,0
1582028483307,2913925,0,1,0
1582028483406,2912467,0,1,0
1582028483506,2911972,0,1,0
1582028483606,2911405,0,1,0
1582028483707,2911078,0,1,0
1582028483806,2911358,0,1,0
1582028483906,2911541,0,1,0
1582028484009,2911529,0,1,0
1582028484107,2910249,0,1,0
1582028484208,2909889,0,1,0
1582028484307,2909735,0,1,0
1582028484407,2909643,0,1,0
1582028484507,2909557,0,1,0
1582028484607,2909979,0,1,0
1582028484707,2909557,0,1,0
1582028484807,2908318,0,1,0
1582028484907,2907868,0,1,0
1582028485007,2907576,0,1,0
1582028485107,2907367,0,1,0
1582028485208,2907389,0,1,0
1582028485307,2907262,0,1,0
1582028485407,2906080,0,1,0
1582028485508,2905122,0,1,0
1582028485608,2904114,0,1,0
1582028485708,2903316,0,1,0
1582028485808,2902697,0,1,0
1582028485908,2902121,0,1,0
1582028486008,2900093,0,1,0
1582028486108,2898838,0,1,0
1582028486208,2897993,0,1,0
1582028486308,2897364,0,1,0
1582028486408,2896946,0,1,0
1582028486508,2896196,0,1,0
1582028486608,2894341,0,1,0
1582028486708,2893223,0,1,0
1582028486808,2892494,0,1,0
1582028486908,2891721,0,1,0
1582028487009,2891315,0,1,0
1582028487108,2890176,0,1,0
1582028487209,2888370,0,1,0
1582028487309,2887732,0,1,0
1582028487409,2886980,0,1,0
1582028487509,2886651,0,1,0
1582028487609,2886741,0,1,0
1582028487709,2885520,0,1,0
1582028487809,2883776,0,1,0
1582028487909,2882960,0,1,0
1582028488010,2882408,0,1,0
1582028488109,2882011,0,1,0
1582028488209,2882336,0,1,0
1582028488309,2882632,0,1,0
1582028488409,2882491,0,1,0
1582028488510,2880575,0,1,0
1582028488609,2879228,0,1,0
1582028488709,2878796,0,1,0
1582028488810,2878366,0,1,0
1582028488909,2878539,0,1,0
1582028489010,2878974,0,1,0
1582028489110,2879660,0,1,0
1582028489210,2879917,0,1,0
1582028489310,2879366,0,1,0
1582028489410,2877525,0,1,0
1582028489510,2876757,0,1,0
1582028489610,2876318,0,1,0
1582028489710,2876432,0,1,0
1582028489810,2876898,0,1,0
1582028489910,2877642,0,1,0
1582028490011,2878483,0,1,0
1582028490110,2879286,0,1,0
1582028490210,2879217,0,1,0
1582028490311,2877848,0,1,0
1582028490410,2877399,0,1,0
1582028490511,2877601,0,1,0
1582028490611,2878219,0,1,0
1582028490711,2879216,0,1,0
1582028490811,2880565,0,1,0
1582028490911,2881869,0,1,0
1582028491011,2883072,0,1,0
1582028491111,2884157,0,1,0
1582028491212,2883161,0,1,0
1582028491311,2882930,0,1,0
1582028491411,2883239,0,1,0
1582028491512,2883657,0,1,0
1582028491612,2884563,0,1,0
1582028491711,2885609,0,1,0
1582028491812,2886787,0,1,0
1582028491911,2887817,0,1,0
1582028492012,2889072,0,1,0
1582028492112,2888622,0,1,0
1582028492212,2887979,0,1,0
1582028492312,2888243,0,1,0
1582028492412,2888568,0,1,0
1582028492512,2888962,0,1,0
1582028492612,2889920,0,1,0
1582028492713,2890929,0,1,0
1582028492812,2892030,0,1,0
1582028492912,2892938,0,1,0
1582028493013,2893710,0,1,0
1582028493112,2892841,0,1,0
1582028493213,2892694,0,1,0
1582028493313,2893061,0,1,0
1582028493412,2893356,0,1,0
1582028493513,2893890,0,1,0
1582028493613,2894804,0,1,0
1582028493713,2895936,0,1,0
1582028493813,2897050,0,1,0
1582028493913,2897477,0,1,0
1582028494013,2896901,0,1,0
1582028494114,2896786,0,1,0
1582028494213,2897200,0,1,0
1582028494313,2897610,0,1,0
1582028494413,2898216,0,1,0
1582028494514,2898914,0,1,0
1582028494613,2899828,0,1,0
1582028494713,2900462,0,1,0
1582028494814,2899928,0,1,0
1582028494913,2899316,0,1,0
1582028495014,2899538,0,1,0
1582028495114,2899888,0,1,0
1582028495214,2899976,0,1,0
1582028495314,2900611,0,1,0
1582028495414,2901415,0,1,0
1582028495514,2902103,0,1,0
1582028495614,2901669,0,1,0
1582028495714,2900970,0,1,0
1582028495814,2901041,0,1,0
1582028495914,2901138,0,1,0
1582028496015,2901321,0,1,0
1582028496115,2901920,0,1,0
1582028496214,2902787,0,1,0
1582028496315,2903683,0,1,0
1582028496415,2904068,0,1,0
1582028496515,2903942,0,1,0
1582028496616,2904008,0,1,0
1582028496715,2903970,0,1,0
1582028496815,2903805,0,1,0
1582028496915,2904073,0,1,0
1582028497015,2904542,0,1,0
1582028497115,2905050,0,1,0
1582028497218,2904701,0,1,0
1582028497315,2903869,0,1,0
1582028497415,2903631,0,1,0
1582028497516,2903769,0,1,0
1582028497616,2903630,0,1,0
1582028497716,2904128,0,1,0
1582028497816,2904433,0,1,0
1582028497915,2905113,0,1,0
1582028498017,2904569,0,1,0
1582028498116,2903043,0,1,0
1582028498216,2902271,0,1,0
1582028498316,2901532,0,1,0
1582028498416,2900761,0,1,0
1582028498516,2900319,0,1,0
1582028498616,2900525,0,1,0
1582028498717,2900296,0,1,0
1582028498816,2899056,0,1,0
1582028498916,2897351,0,1,0
1582028499017,2896801,0,1,0
1582028499116,2896056,0,1,0
1582028499218,2895442,0,1,0
1582028499317,2895125,0,1,0
1582028499416,2895060,0,1,0
1582028499517,2894316,0,1,0
1582028499617,2892623,0,1,0
1582028499717,2891482,0,1,0
1582028499817,2890840,0,1,0
1582028499918,2890255,0,1,0
1582028500020,2890011,0,1,0
1582028500117,2890217,0,1,0
1582028500217,2889265,0,1,0
1582028500317,2887628,0,1,0
1582028500417,2886975,0,1,0
1582028500518,2886585,0,1,0
1582028500618,2886344,0,1,0
1582028500717,2886467,0,1,0
1582028500818,2886825,0,1,0
1582028500918,2885716,0,1,0
1582028501018,2884126,0,1,0
1582028501118,2883568,0,1,0
1582028501218,2883004,0,1,0
1582028501318,2882840,0,1,0
1582028501418,2883078,0,1,0
1582028501518,2883608,0,1,0
1582028501618,2884205,0,1,0
1582028501718,2883501,0,1,0
1582028501818,2881596,0,1,0
1582028501918,2880855,0,1,0
1582028502019,2880471,0,1,0
1582028502118,2880398,0,1,0
1582028502218,2880703,0,1,0
1582028502319,2881448,0,1,0
1582028502419,2882403,0,1,0
1582028502519,2883492,0,1,0
1582028502619,2884813,0,1,0
1582028502719,2883931,0,1,0
1582028502819,2883001,0,1,0
1582028502919,2883157,0,1,0
1582028503019,2883178,0,1,0
1582028503119,2883837,0,1,0
1582028503220,2884733,0,1,0
1582028503319,2886113,0,1,0
1582028503419,2887225,0,1,0
1582028503520,2888657,0,1,0
1582028503620,2889364,0,1,0
1582028503720,2888195,0,1,0
1582028503820,2887624,0,1,0
1582028503919,2887825,0,1,0
1582028504020,2888152,0,1,0
1582028504120,2888641,0,1,0
1582028504220,2889708,0,1,0
1582028504320,2890829,0,1,0
1582028504420,2891935,0,1,0
1582028504520,2893140,0,1,0
1582028504620,2892990,0,1,0
1582028504720,2891973,0,1,0
1582028504820,2891936,0,1,0
1582028504920,2892446,0,1,0
1582028505021,2892509,0,1,0
1582028505120,2893303,0,1,0
1582028505221,2894191,0,1,0
1582028505321,2895256,0,1,0
1582028505420,2896438,0,1,0
1582028505521,2897300,0,1,0
1582028505621,2896634,0,1,0
1582028505721,2896085,0,1,0
1582028505821,2896379,0,1,0
1582028505923,2896504,0,1,0
1582028506023,2896698,0,1,0
1582028506123,2897951,0,1,0
1582028506222,2898463,0,1,0
1582028506322,2899065,0,1,0
1582028506422,2898373,0,1,0
1582028506523,2896913,0,1,0
1582028506622,2896572,0,1,0
1582028506722,2896106,0,1,0
1582028506822,2895851,0,1,0
1582028506922,2895573,0,1,0
1582028507022,2895862,0,1,0
1582028507122,2896119,0,1,0
1582028507222,2895630,0,1,0
1582028507322,2894390,0,1,0
1582028507422,2893954,0,1,0
1582028507522,2893757,0,1,0
1582028507622,2893557,0,1,0
1582028507722,2893710,0,1,0
1582028507822,2894023,0,1,0
1582028507922,2894111,0,1,0
1582028508023,2893068,0,1,0
1582028508122,2892650,0,1,0
1582028508222,2892420,0,1,0
1582028508323,2892465,0,1,0
1582028508422,2892604,0,1,0
1582028508523,2893167,0,1,0
1582028508623,2893427,0,1,0
1582028508723,2892300,0,1,0
1582028508823,2891794,0,1,0
1582028508923,2891968,0,1,0
1582028509023,2891921,0,1,0
1582028509123,2892456,0,1,0
1582028509224,2893394,0,1,0
1582028509323,2894239,0,1,0
1582028509423,2893407,0,1,0
1582028509524,2892575,0,1,0
1582028509623,2892940,0,1,0
1582028509723,2893193,0,1,0
1582028509824,2893704,0,1,0
1582028509924,2894552,0,1,0
1582028510024,2895449,0,1,0
1582028510124,2896367,0,1,0
1582028510224,2896599,0,1,0
1582028510324,2895357,0,1,0
1582028510424,2895070,0,1,0
1582028510524,2895129,0,1,0
1582028510624,2895179,0,1,0
1582028510725,2895765,0,1,0
1582028510824,2896412,0,1,0
1582028510924,2897234,0,1,0
1582028511025,2898169,0,1,0
1582028511124,2898479,0,1,0
1582028511225,2897083,0,1,0
1582028511325,2896867,0,1,0
1582028511424,2897041,0,1,0
1582028511525,2896808,0,1,0
1582028511625,2897031,0,1,0
1582028511725,2897490,0,1,0
1582028511825,2897674,0,1,0
1582028511925,2897900,0,1,0
1582028512025,2897261,0,1,0
1582028512125,2895565,0,1,0
1582028512226,2894623,0,1,0
1582028512325,2894112,0,1,0
1582028512425,2893339,0,1,0
1582028512526,2893094,0,1,0
1582028512625,2893057,0,1,0
1582028512726,2893135,0,1,0
1582028512826,2892649,0,1,0
1582028512926,2891285,0,1,0
1582028513026,2890548,0,1,0
1582028513126,2890263,0,1,0
1582028513229,2889810,0,1,0
1582028513326,2889816,0,1,0
1582028513426,2890110,0,1,0
1582028513526,2890246,0,1,0
1582028513626,2888985,0,1,0
1582028513726,2888144,0,1,0
1582028513826,2888000,0,1,0
1582028513926,2887674,0,1,0
1582028514029,2887656,0,1,0
1582028514127,2887971,0,1,0
1582028514226,2888255,0,1,0
1582028514327,2886783,0,1,0
1582028514428,2886024,0,1,0
1582028514527,2885765,0,1,0
1582028514627,2885525,0,1,0
1582028514727,2885861,0,1,0
1582028514827,2886562,0,1,0
1582028514927,2887176,0,1,0
1582028515027,2885864,0,1,0
1582028515127,2885293,0,1,0
1582028515228,2885339,0,1,0
1582028515328,2885398,0,1,0
1582028515427,2885745,0,1,0
1582028515528,2886695,0,1,0
1582028515628,2887405,0,1,0
1582028515728,2888461,0,1,0
1582028515828,2888100,0,1,0
1582028515928,2886556,0,1,0
1582028516028,2886343,0,1,0
1582028516128,2886117,0,1,0
1582028516228,2886101,0,1,0
1582028516328,2886763,0,1,0
1582028516428,2887577,0,1,0
1582028516528,2888439,0,1,0
1582028516628,2889303,0,1,0
1582028516728,2888959,0,1,0
1582028516828,2887328,0,1,0
1582028516928,2886981,0,1,0
1582028517029,2886657,0,1,0
1582028517128,2886724,0,1,0
1582028517229,2887106,0,1,0
1582028517329,2887880,0,1,0
1582028517429,2888346,0,1,0
1582028517529,2888896,0,1,0
1582028517629,2888080,0,1,0
1582028517729,2886286,0,1,0
1582028517829,2885423,0,1,0
1582028517929,2884795,0,1,0
1582028518030,2884139,0,1,0
1582028518129,2883961,0,1,0
1582028518229,2884216,0,1,0
1582028518329,2884353,0,1,0
1582028518429,2884046,0,1,0
1582028518530,2881947,0,1,0
1582028518629,2880895,0,1,0
1582028518729,2880684,0,1,0
1582028518830,2880114,0,1,0
1582028518930,2879871,0,1,0
1582028519030,2880316,0,1,0
1582028519130,2880803,0,1,0
1582028519230,2879960,0,1,0
1582028519330,2878324,0,1,0
1582028519430,2877967,0,1,0
1582028519530,2877894,0,1,0
1582028519630,2877587,0,1,0
1582028519730,2878041,0,1,0
1582028519830,2878751,0,1,0
1582028519930,2878744,0,1,0
1582028520031,2876742,0,1,0
1582028520130,2875858,0,1,0
1582028520231,2875796,0,1,0
1582028520331,2875436,0,1,0
1582028520432,2875827,0,1,0
1582028520531,2876454,0,1,0
1582028520631,2877304,0,1,0
1582028520731,2875961,0,1,0
1582028520831,2874481,0,1,0
1582028520931,2874329,0,1,0
1582028521031,2874156,0,1,0
1582028521131,2874509,0,1,0
1582028521232,2875265,0,1,0
1582028521331,2876607,0,1,0
1582028521431,2877767,0,1,0
1582028521532,2877099,0,1,0
1582028521632,2875898,0,1,0
1582028521731,2875946,0,1,0
1582028521832,2876148,0,1,0
1582028521932,2876653,0,1,0
1582028522032,2877720,0,1,0
1582028522132,2879111,0,1,0
1582028522232,2880440,0,1,0
1582028522332,2881573,0,1,0
1582028522432,2880228,0,1,0
1582028522532,2879399,0,1,0
1582028522632,2879683,0,1,0
1582028522732,2879797,0,1,0
1582028522832,2880396,0,1,0
1582028522932,2881326,0,1,0
1582028523033,2882352,0,1,0
1582028523132,2883097,0,1,0
1582028523233,2883349,0,1,0
1582028523333,2881498,0,1,0
1582028523432,2880397,0,1,0
1582028523533,2880269,0,1,0
1582028523633,2879883,0,1,0
1582028523733,2879817,0,1,0
1582028523833,2880201,0,1,0
1582028523933,2880763,0,1,0
1582028524033,2881200,0,1,0
1582028524133,2879946,0,1,0
1582028524233,2878358,0,1,0
1582028524333,2878279,0,1,0
1582028524433,2878204,0,1,0
1582028524534,2878262,0,1,0
1582028524633,2878749,0,1,0
1582028524733,2879758,0,1,0
1582028524834,2880063,0,1,0
1582028524934,2878656,0,1,0
1582028525034,2878094,0,1,0
1582028525134,2878531,0,1,0
1582028525234,2878543,0,1,0
1582028525334,2879035,0,1,0
1582028525434,2879951,0,1,0
1582028525534,2881021,0,1,0
1582028525635,2880666,0,1,0
1582028525735,2879314,0,1,0
1582028525834,2879105,0,1,0
1582028525934,2879471,0,1,0
1582028526035,2879870,0,1,0
1582028526135,2880932,0,1,0
1582028526234,2882196,0,1,0
1582028526335,2883376,0,1,0
1582028526434,2882554,0,1,0
1582028526535,2881697,0,1,0
1582028526635,2882091,0,1,0
1582028526735,2882466,0,1,0
1582028526835,2883094,0,1,0
1582028526935,2884191,0,1,0
1582028527035,2885632,0,1,0
1582028527135,2886741,0,1,0
1582028527237,2885976,0,1,0
1582028527335,2885027,0,1,0
1582028527435,2885198,0,1,0
1582028527536,2885601,0,1,0
1582028527636,2885895,0,1,0
1582028527735,2886710,0,1,0
1582028527836,2887725,0,1,0
1582028527936,2888732,0,1,0
1582028528038,2888497,0,1,0
1582028528136,2886634,0,1,0
1582028528236,2885793,0,1,0
1582028528336,2885503,0,1,0
1582028528436,2885159,0,1,0
1582028528536,2884903,0,1,0
1582028528636,2885126,0,1,0
1582028528736,2885444,0,1,0
1582028528836,2885137,0,1,0
1582028528936,2883214,0,1,0
1582028529037,2882206,0,1,0
1582028529136,2881808,0,1,0
1582028529238,2881185,0,1,0
1582028529337,2881243,0,1,0
1582028529437,2881717,0,1,0
1582028529537,2882293,0,1,0
1582028529637,2881228,0,1,0
1582028529737,2879839,0,1,0
1582028529837,2879756,0,1,0
1582028529937,2879572,0,1,0
1582028530040,2879653,0,1,0
1582028530137,2880280,0,1,0
1582028530238,2881081,0,1,0
1582028530337,2880619,0,1,0
1582028530437,2878687,0,1,0
1582028530538,2878210,0,1,0
1582028530638,2878248,0,1,0
1582028530738,2878170,0,1,0
1582028530838,2878864,0,1,0
1582028530938,2879746,0,1,0
1582028531038,2880179,0,1,0
1582028531138,2878426,0,1,0
1582028531238,2877384,0,1,0
1582028531338,2877317,0,1,0
1582028531439,2877312,0,1,0
1582028531538,2877556,0,1,0
1582028531638,2878389,0,1,0
1582028531738,2879469,0,1,0
1582028531838,2879641,0,1,0
1582028531938,2877717,0,1,0
1582028532039,2876904,0,1,0
1582028532139,2877005,0,1,0
1582028532238,2876700,0,1,0
1582028532339,2877001,0,1,0
1582028532439,2877877,0,1,0
1582028532539,2878699,0,1,0
1582028532639,2879263,0,1,0
1582028532739,2877725,0,1,0
1582028532839,2876955,0,1,0
1582028532939,2877074,0,1,0
1582028533039,2877003,0,1,0
1582028533139,2877466,0,1,0
1582028533240,2878228,0,1,0
1582028533339,2879259,0,1,0
1582028533439,2880140,0,1,0
1582028533540,2878999,0,1,0
1582028533640,2877750,0,1,0
1582028533739,2877695,0,1,0
1582028533840,2877983,0,1,0
1582028533940,2878131,0,1,0
1582028534040,2879048,0,1,0
1582028534140,2880151,0,1,0
1582028534240,2881305,0,1,0
1582028534340,2881204,0,1,0
1582028534440,2880363,0,1,0
1582028534540,2881051,0,1,0
1582028534640,2881716,0,1,0
1582028534740,2882382,0,1,0
1582028534840,2883521,0,1,0
1582028534940,2884950,0,1,0
1582028535041,2886215,0,1,0
1582028535140,2885779,0,1,0
1582028535241,2885054,0,1,0
1582028535341,2885613,0,1,0
1582028535441,2886190,0,1,0
1582028535541,2886234,0,1,0
1582028535642,2887027,0,1,0
1582028535741,2888939,0,1,0
1582028535841,2891011,0,1,0
1582028535941,2891068,0,1,0
1582028536041,2890685,1,1,d
1582028536141,2891886,1,1,d
1582028536242,2893613,1,1,d
1582028536342,2895643,1,1,d
1582028536442,2897781,1,1,d
1582028536543,2898346,1,1,d
1582028536642,2895888,1,1,d
1582028536742,2893183,1,1,d
1582028536843,2891702,1,1,d
1582028536942,2891152,1,1,d
1582028537042,2890868,1,1,d
1582028537143,2892906,1,1,d
1582028537243,2895483,1,1,d
1582028537345,2897754,1,1,d
1582028537445,2897383,1,1,d
1582028537545,2896238,1,1,d
1582028537645,2895842,1,1,d
1582028537745,2895121,1,1,d
1582028537844,2895054,1,1,d
1582028537944,2894875,1,1,d
1582028538045,2893522,1,1,d
1582028538144,2891444,1,1,d
1582028538244,2890461,1,1,d
1582028538344,2889844,1,1,d
1582028538444,2889043,1,1,d
1582028538544,2889021,1,1,d
1582028538645,2888654,1,1,d
1582028538744,2885811,1,1,d
1582028538844,2884278,1,1,d
1582028538945,2883637,1,1,d
1582028539045,2882823,1,1,d
1582028539144,2882631,1,1,d
1582028539245,2882816,1,1,d
1582028539345,2880733,1,1,d
1582028539445,2879187,1,1,d
1582028539545,2878760,1,1,d
1582028539645,2878349,1,1,d
1582028539745,2877973,1,1,d
1582028539845,2878507,1,1,d
1582028539945,2878287,1,1,d
1582028540045,2876224,1,1,d
1582028540146,2874779,1,1,d
1582028540245,2874309,1,1,d
1582028540345,2873593,1,1,d
1582028540446,2873728,1,1,d
1582028540544,2874289,1,1,d
1582028540644,2874706,1,1,d
1582028540745,2875431,1,1,d
1582028540844,2874733,1,1,d
1582028540944,2872623,1,1,d
1582028541045,2871962,1,1,d
1582028541144,2871893,1,1,d
1582028541245,2872148,1,1,d
1582028541345,2873001,1,1,d
1582028541444,2873689,1,1,d
1582028541545,2874527,1,1,d
1582028541645,2875308,1,1,d
1582028541745,2874213,1,1,d
1582028541845,2873036,1,1,d
1582028541945,2873168,1,1,d
1582028542045,2873474,1,1,d
1582028542145,2873899,1,1,d
1582028542245,2875164,1,1,d
1582028542345,2876539,1,1,d
1582028542445,2877662,1,1,d
1582028542546,2876180,1,1,d
1582028542645,2874381,1,1,d
1582028542745,2874716,1,1,d
1582028542846,2875860,1,1,d
1582028542946,2878200,1,1,d
1582028543046,2880573,1,1,d
1582028543146,2882174,1,1,d
1582028543248,2883447,1,1,d
1582028543346,2882710,1,1,d
1582028543446,2880910,1,1,d
1582028543546,2880202,1,1,d
1582028543646,2879539,1,1,d
1582028543747,2879275,1,1,d
1582028543846,2880218,1,1,d
1582028543946,2881489,1,1,d
1582028544051,2882822,1,1,d
1582028544147,2882482,1,1,d
1582028544247,2881346,1,1,d
1582028544347,2881949,1,1,d
1582028544447,2882369,1,1,d
1582028544547,2882879,1,1,d
1582028544647,2883542,1,1,d
1582028544747,2884494,1,1,d
1582028544847,2885442,1,1,d
1582028544947,2885570,1,1,d
1582028545047,2885036,1,1,d
1582028545147,2885759,1,1,d
1582028545248,2886656,1,1,d
1582028545347,2887160,1,1,d
1582028545447,2888196,1,1,d
1582028545548,2888986,1,1,d
1582028545648,2889370,1,1,d
1582028545748,2888285,1,1,d
1582028545848,2887626,1,1,d
1582028545948,2888388,1,1,d
1582028546048,2889430,1,1,d
1582028546148,2890804,1,1,d
1582028546248,2892500,1,1,d
1582028546348,2894286,1,1,d
1582028546448,2894158,1,1,d
1582028546548,2893119,1,1,d
1582028546648,2892932,1,1,d
1582028546748,2893092,1,1,d
1582028546848,2893067,1,1,d
1582028546948,2893442,1,1,d
1582028547049,2894341,1,1,d
1582028547148,2894593,1,1,d
1582028547249,2893790,1,1,d
1582028547349,2893613,1,1,d
1582028547449,2894148,1,1,d
1582028547549,2894575,1,1,d
1582028547649,2895148,1,1,d
1582028547749,2896150,1,1,d
1582028547849,2896419,1,1,d
1582028547949,2895734,1,1,d
1582028548050,2895980,1,1,d
1582028548149,2896352,1,1,d
1582028548249,2896614,1,1,d
1582028548349,2897230,1,1,d
1582028548449,2897694,1,1,d
1582028548550,2897900,1,1,d
1582028548650,2896360,1,1,d
1582028548749,2895312,1,1,d
1582028548850,2895152,1,1,d
1582028548949,2894732,1,1,d
1582028549050,2894653,1,1,d
1582028549150,2894750,1,1,d
1582028549250,2893840,1,1,d
1582028549350,2892061,1,1,d
1582028549450,2891111,1,1,d
1582028549550,2890591,1,1,d
1582028549650,2890193,1,1,d
1582028549751,2890112,1,1,d
1582028549850,2889870,1,1,d
1582028549950,2888208,1,1,d
1582028550051,2887102,1,1,d
1582028550151,2886512,1,1,d
1582028550250,2885794,1,1,d
1582028550351,2885509,1,1,d
1582028550451,2885271,1,1,d
1582028550551,2883385,1,1,d
1582028550652,2882021,1,1,d
1582028550751,2881542,1,1,d
1582028550851,2880749,1,1,d
1582028550951,2880333,1,1,d
1582028551052,2879989,1,1,d
1582028551151,2878022,1,1,d
1582028551252,2877055,1,1,d
1582028551351,2876759,1,1,d
1582028551451,2876697,1,1,d
1582028551552,2876707,1,1,d
1582028551652,2876990,1,1,d
1582028551751,2875212,1,1,d
1582028551852,2873729,1,1,d
1582028551952,2873508,1,1,d
1582028552052,2873275,1,1,d
1582028552152,2873631,1,1,d
1582028552252,2874297,1,1,d
1582028552352,2874971,1,1,d
1582028552452,2875779,1,1,d
1582028552552,2875651,1,1,d
1582028552652,2873756,1,1,d
1582028552753,2873224,1,1,d
1582028552852,2873802,1,1,d
1582028552952,2874416,1,1,d
1582028553053,2875408,1,1,d
1582028553152,2876932,1,1,d
1582028553253,2878084,1,1,d
1582028553353,2879463,1,1,d
1582028553452,2880033,1,1,d
1582028553553,2878873,1,1,d
1582028553653,2879103,1,1,d
1582028553753,2880255,1,1,d
1582028553853,2881273,1,1,d
1582028553953,2882680,1,1,d
1582028554053,2884282,1,1,d
1582028554153,2885757,1,1,d
1582028554253,2887341,1,1,d
1582028554353,2888541,1,1,d
1582028554453,2888188,1,1,d
1582028554554,2888533,1,1,d
1582028554653,2889555,1,1,d
1582028554753,2890566,1,1,d
1582028554854,2891903,1,1,d
1582028554953,2893181,1,1,d
1582028555054,2894596,1,1,d
1582028555154,2896060,1,1,d
1582028555254,2897457,1,1,d
1582028555354,2897987,1,1,d
1582028555454,2898119,1,1,d
1582028555554,2899132,1,1,d
1582028555654,2900125,1,1,d
1582028555754,2901133,1,1,d
1582028555854,2902320,1,1,d
1582028555954,2903512,1,1,d
1582028556055,2904701,1,1,d
1582028556155,2905829,1,1,d
1582028556254,2906939,1,1,d
1582028556355,2907309,1,1,d
1582028556454,2907911,1,1,d
1582028556555,2908777,1,1,d
1582028556655,2909738,1,1,d
1582028556755,2910695,1,1,d
1582028556855,2911608,1,1,d
1582028556955,2912575,1,1,d
1582028557055,2913515,1,1,d
1582028557155,2914398,1,1,d
1582028557258,2914839,1,1,d
1582028557355,2915240,1,1,d
1582028557455,2916067,1,1,d
1582028557556,2916902,1,1,d
1582028557656,2918118,1,1,d
1582028557755,2919038,1,1,d
1582028557856,2920091,1,1,d
1582028557956,2921319,1,1,d
1582028558058,2922077,1,1,d
1582028558156,2922545,1,1,d
1582028558256,2923333,1,1,d
1582028558356,2924121,1,1,d
1582028558456,2924814,1,1,d
1582028558556,2925628,1,1,d
1582028558659,2926306,1,1,d
1582028558757,2927027,1,1,d
1582028558858,2927535,1,1,d
1582028558956,2927750,1,1,d
1582028559057,2928323,0,1,0
1582028559156,2928833,0,1,0
1582028559259,2929232,0,1,0
1582028559357,2929560,0,1,0
1582028559457,2929689,0,1,0
1582028559557,2929843,0,1,0
1582028559657,2929691,0,1,0
1582028559757,2929616,0,1,0
1582028559857,2930164,0,1,0
1582028559957,2930528,0,1,0
1582028560060,2930796,0,1,0
1582028560157,2931321,0,1,0
1582028560258,2931363,0,1,0
1582028560357,2930301,0,1,0
1582028560457,2929369,0,1,0
1582028560558,2928504,0,1,0
1582028560658,2927181,0,1,0
1582028560757,2926135,0,1,0
1582028560858,2925712,0,1,0
1582028560958,2925029,0,1,0
1582028561058,2924003,0,1,0
1582028561158,2923496,0,1,0
1582028561258,2923139,0,1,0
1582028561358,2922644,0,1,0
1582028561458,2922359,0,1,0
1582028561558,2921550,0,1,0
1582028561658,2920256,0,1,0
1582028561759,2919570,0,1,0
1582028561858,2918775,0,1,0
1582028561958,2918224,0,1,0
1582028562059,2918147,0,1,0
1582028562159,2916837,0,1,0
1582028562258,2915177,0,1,0
1582028562359,2914253,0,1,0
1582028562459,2913431,0,1,0
1582028562559,2912988,0,1,0
1582028562659,2912895,0,1,0
1582028562759,2910869,0,1,0
1582028562859,2908953,0,1,0
1582028562959,2907827,0,1,0
1582028563059,2907146,0,1,0
1582028563159,2907051,0,1,0
1582028563260,2907545,0,1,0
1582028563359,2907911,0,1,0
1582028563459,2905952,0,1,0
1582028563560,2903199,0,1,0
1582028563660,2901831,0,1,0
1582028563759,2900737,0,1,0
1582028563860,2900293,0,1,0
1582028563960,2900451,0,1,0
1582028564060,2900782,0,1,0
1582028564160,2901221,0,1,0
1582028564260,2901595,0,1,0
1582028564360,2901868,0,1,0
1582028564460,2898844,0,1,0
1582028564560,2896617,0,1,0
1582028564660,2895661,0,1,0
1582028564760,2894908,0,1,0
1582028564860,2894833,0,1,0
1582028564960,2895456,0,1,0
1582028565061,2896020,0,1,0
1582028565160,2896443,0,1,0
1582028565261,2896969,0,1,0
1582028565361,2895103,0,1,0
1582028565460,2892591,0,1,0
1582028565561,2892035,0,1,0
1582028565662,2891368,0,1,0
1582028565761,2891246,0,1,0
1582028565861,2891668,0,1,0
1582028565961,2892562,0,1,0
1582028566062,2893198,0,1,0
1582028566162,2894033,0,1,0
1582028566262,2892779,0,1,0
1582028566361,2890309,0,1,0
1582028566461,2889992,0,1,0
1582028566562,2889901,0,1,0
1582028566662,2889769,0,1,0
1582028566761,2890377,0,1,0
1582028566862,2891353,0,1,0
1582028566961,2892316,0,1,0
1582028567062,2893258,0,1,0
1582028567162,2892856,0,1,0
1582028567262,2890332,0,1,0
1582028567362,2889874,0,1,0
1582028567462,2890006,0,1,0
1582028567562,2889779,0,1,0
1582028567662,2890338,0,1,0
1582028567763,2891266,0,1,0
1582028567862,2892375,0,1,0
1582028567962,2893297,0,1,0
1582028568063,2892497,0,1,0
1582028568163,2890777,0,1,0
1582028568262,2890874,0,1,0
1582028568363,2891030,0,1,0
1582028568462,2891223,0,1,0
1582028568563,2892139,0,1,0
1582028568663,2893124,0,1,0
1582028568763,2894241,0,1,0
1582028568864,2894888,0,1,0
1582028568965,2892914,0,1,0
1582028569064,2892878,0,1,0
1582028569164,2893291,0,1,0
1582028569265,2893702,0,1,0
1582028569364,2894420,0,1,0
1582028569464,2895323,0,1,0
1582028569564,2896229,0,1,0
1582028569664,2896896,0,1,0
1582028569764,2895281,0,1,0
1582028569865,2894228,0,1,0
1582028569964,2894205,0,1,0
1582028570064,2893960,0,1,0
1582028570164,2894017,0,1,0
1582028570264,2894465,0,1,0
1582028570364,2895111,0,1,0
1582028570464,2895135,0,1,0
1582028570564,2893508,0,1,0
1582028570664,2892702,0,1,0
1582028570765,2892895,0,1,0
1582028570864,2892854,0,1,0
1582028570964,2893116,0,1,0
1582028571065,2893687,0,1,0
1582028571164,2894227,0,1,0
1582028571265,2892949,0,1,0
1582028571365,2892435,0,1,0
1582028571465,2892526,0,1,0
1582028571565,2892665,0,1,0
1582028571665,2892899,0,1,0
1582028571765,2893606,0,1,0
1582028571865,2894007,0,1,0
1582028571965,2892844,0,1,0
1582028572065,2891904,0,1,0
1582028572165,2891885,0,1,0
1582028572265,2891490,0,1,0
1582028572365,2891719,0,1,0
1582028572466,2892294,0,1,0
1582028572566,2892810,0,1,0
1582028572666,2891143,0,1,0
1582028572766,2890425,0,1,0
1582028572866,2890364,0,1,0
1582028572965,2890518,0,1,0
1582028573066,2891023,0,1,0
1582028573166,2891943,0,1,0
1582028573269,2893210,0,1,0
1582028573366,2894585,0,1,0
1582028573466,2894684,0,1,0
1582028573566,2894328,0,1,0
1582028573667,2893743,0,1,0
1582028573767,2893000,0,1,0
1582028573866,2893133,0,1,0
1582028573966,2894075,0,1,0
1582028574070,2895030,0,1,0
1582028574167,2894952,0,1,0
1582028574267,2895122,0,1,0
1582028574367,2894034,0,1,0
1582028574467,2891336,0,1,0
1582028574567,2890447,0,1,0
1582028574667,2889378,0,1,0
1582028574767,2888058,0,1,0
1582028574867,2887977,0,1,0
1582028574967,2888910,0,1,0
1582028575067,2890376,0,1,0
1582028575167,2892345,0,1,0
1582028575268,2892506,0,1,0
1582028575367,2891672,0,1,0
1582028575467,2891415,0,1,0
1582028575569,2881444,0,1,0
1582028575668,2873088,0,1,0
1582028575768,2870704,0,1,0
1582028575869,2871489,0,1,0
1582028575968,2872455,0,1,0
1582028576069,2872840,0,1,0
1582028576170,2874947,0,1,0
1582028576269,2882831,0,1,0
1582028576373,2900273,0,1,0
1582028576469,2901493,0,1,0
1582028576570,2901548,0,1,0
1582028576670,2905844,0,1,0
1582028576770,2905460,0,1,0
1582028576870,2898963,0,1,0
1582028576970,2893401,0,1,0
1582028577070,2894927,0,1,0
1582028577170,2890025,0,1,0
1582028577270,2887333,0,1,0
1582028577370,2885106,0,1,0
1582028577470,2887730,0,1,0
1582028577570,2891734,0,1,0
1582028577671,2894528,0,1,0
1582028577770,2895346,0,1,0
1582028577870,2897844,0,1,0
1582028577971,2899489,0,1,0
1582028578071,2899618,0,1,0
1582028578171,2899176,0,1,0
1582028578271,2898865,0,1,0
1582028578371,2899336,0,1,0
1582028578470,2899999,0,1,0
1582028578571,2899297,0,1,0
1582028578671,2898338,0,1,0
1582028578771,2898204,0,1,0
1582028578871,2898434,0,1,0
1582028578971,2898885,0,1,0
1582028579071,2900151,0,1,0
1582028579171,2901829,0,1,0
1582028579271,2903105,0,1,0
1582028579371,2902259,0,1,0
1582028579472,2901191,0,1,0
1582028579571,2901556,0,1,0
1582028579671,2902015,0,1,0
1582028579772,2902531,0,1,0
1582028579872,2904033,0,1,0
1582028579972,2906252,0,1,0
1582028580073,2909557,0,1,0
1582028580172,2911719,0,1,0
1582028580272,2913408,0,1,0
1582028580372,2914734,0,1,0
1582028580472,2914884,0,1,0
1582028580572,2914181,0,1,0
1582028580673,2913383,0,1,0
1582028580772,2914151,0,1,0
1582028580872,2916263,0,1,0
1582028580973,2917424,0,1,0
1582028581073,2917740,0,1,0
1582028581172,2917286,0,1,0
1582028581273,2915839,0,1,0
1582028581373,2913940,0,1,0
1582028581472,2913108,0,1,0
1582028581573,2913897,0,1,0
1582028581673,2914290,0,1,0
1582028581773,2914572,0,1,0
1582028581873,2915844,0,1,0
1582028581973,2917396,0,1,0
1582028582073,2919010,0,1,0
1582028582174,2920667,0,1,0
1582028582273,2922656,0,1,0
1582028582373,2923550,0,1,0
1582028582474,2924026,0,1,0
1582028582573,2924814,0,1,0
1582028582674,2925852,0,1,0
1582028582774,2927301,0,1,0
1582028582874,2929519,0,1,0
1582028582974,2931722,0,1,0
1582028583074,2932511,0,1,0
1582028583174,2933304,0,1,0
1582028583274,2934558,0,1,0
1582028583374,2935576,0,1,0
1582028583474,2936461,0,1,0
1582028583573,2937798,0,1,0
1582028583675,2938184,0,1,0
1582028583774,2937076,0,1,0
1582028583874,2936645,0,1,0
1582028583975,2936541,0,1,0
1582028584075,2936591,0,1,0
1582028584175,2937517,0,1,0
1582028584275,2938297,0,1,0
1582028584375,2938157,0,1,0
1582028584475,2937570,0,1,0
1582028584575,2937876,0,1,0
1582028584675,2938131,0,1,0
1582028584775,2938645,0,1,0
1582028584875,2939571,0,1,0
1582028584975,2940584,0,1,0
1582028585075,2940129,0,1,0
1582028585176,2939221,0,1,0
1582028585275,2938857,0,1,0
1582028585375,2939306,0,1,0
1582028585476,2940234,0,1,0
1582028585575,2941391,0,1,0
1582028585676,2942463,0,1,0
1582028585776,2942048,0,1,0
1582028585876,2941614,0,1,0
1582028585976,2942067,0,1,0
1582028586079,2942174,0,1,0
1582028586176,2942523,0,1,0
1582028586276,2943333,0,1,0
1582028586376,2943619,0,1,0
1582028586476,2942231,0,1,0
1582028586578,2941788,0,1,0
1582028586677,2941902,0,1,0
1582028586778,2942075,0,1,0
1582028586877,2942445,0,1,0
1582028586977,2943240,0,1,0
1582028587077,2942423,0,1,0
1582028587177,2940850,0,1,0
1582028587279,2940932,0,1,0
1582028587377,2941139,0,1,0
1582028587477,2941864,0,1,0
1582028587577,2942912,0,1,0
1582028587677,2944274,0,1,0
1582028587777,2943056,0,1,0
1582028587877,2942047,0,1,0
1582028587977,2942209,0,1,0
1582028588079,2942347,0,1,0
1582028588178,2942456,0,1,0
1582028588277,2943333,0,1,0
1582028588377,2944456,0,1,0
1582028588476,2945618,0,1,0
1582028588576,2946065,0,1,0
1582028588676,2944349,0,1,0
1582028588777,2943048,0,1,0
1582028588876,2942805,0,1,0
1582028588976,2942311,0,1,0
1582028589077,2941894,0,1,0
1582028589176,2942274,0,1,0
1582028589281,2942552,0,1,0
1582028589378,2942598,0,1,0
1582028589477,2942510,0,1,0
1582028589578,2940627,0,1,0
1582028589678,2939033,0,1,0
1582028589778,2939062,0,1,0
1582028589878,2940004,0,1,0
1582028589978,2941275,0,1,0
1582028590078,2943235,0,1,0
1582028590178,2945854,0,1,0
1582028590278,2948896,0,1,0
1582028590378,2951429,0,1,0
1582028590479,2948481,0,1,0
1582028590579,2941513,0,1,0
1582028590679,2938016,0,1,0
1582028590779,2935508,0,1,0
1582028590879,2933679,0,1,0
1582028590979,2929920,0,1,0
1582028591079,2928240,0,1,0
1582028591180,2927344,0,1,0
1582028591279,2925616,0,1,0
1582028591379,2926355,0,1,0
1582028591480,2930021,0,1,0
1582028591580,2933584,0,1,0
1582028591680,2937026,0,1,0
1582028591780,2941822,0,1,0
1582028591880,2944969,0,1,0
1582028591980,2947565,0,1,0
1582028592080,2949938,0,1,0
1582028592180,2951667,0,1,0
1582028592280,2952111,0,1,0
1582028592380,2952782,0,1,0
1582028592480,2953360,0,1,0
1582028592580,2954117,0,1,0
1582028592681,2953964,0,1,0
1582028592780,2953452,0,1,0
1582028592880,2951571,0,1,0
1582028592981,2950023,0,1,0
1582028593081,2948109,0,1,0
1582028593180,2946763,0,1,0
1582028593281,2946232,0,1,0
1582028593381,2943669,0,1,0
1582028593480,2937436,0,1,0
1582028593581,2931810,0,1,0
1582028593681,2933315,0,1,0
1582028593781,2939161,0,1,0
1582028593881,2944419,0,1,0
1582028593981,2947983,0,1,0
1582028594081,2950313,0,1,0
1582028594182,2951859,0,1,0
1582028594282,2953249,0,1,0
1582028594381,2954455,0,1,0
1582028594482,2955422,0,1,0
1582028594582,2956554,0,1,0
1582028594682,2954565,0,1,0
1582028594782,2953720,0,1,0
1582028594882,2953963,0,1,0
1582028594982,2952721,0,1,0
1582028595082,2953215,0,1,0
1582028595182,2954174,0,1,0
1582028595282,2955243,0,1,0
1582028595383,2955403,0,1,0
1582028595482,2955199,0,1,0
1582028595583,2955164,0,1,0
1582028595683,2955108,0,1,0
1582028595782,2954975,0,1,0
1582028595882,2955075,0,1,0
1582028595983,2954399,0,1,0
1582028596083,2953225,0,1,0
1582028596183,2952437,0,1,0
1582028596283,2951499,0,1,0
1582028596383,2950967,0,1,0
1582028596483,2950626,0,1,0
1582028596584,2949740,0,1,0
1582028596684,2948032,0,1,0
1582028596783,2946538,0,1,0
1582028596883,2945330,0,1,0
1582028596983,2944460,0,1,0
1582028597083,2944120,0,1,0
1582028597183,2943770,0,1,0
1582028597284,2941796,0,1,0
1582028597382,2939697,0,1,0
1582028597482,2938011,0,1,0
1582028597582,2936851,0,1,0
1582028597682,2935974,0,1,0
1582028597782,2935774,0,1,0
1582028597882,2936182,0,1,0
1582028597982,2936725,0,1,0
1582028598083,2936986,0,1,0
1582028598183,2935106,0,1,0
1582028598282,2932893,0,1,0
1582028598383,2931491,0,1,0
1582028598482,2930064,0,1,0
1582028598583,2929131,0,1,0
1582028598684,2929162,0,1,0
1582028598783,2929659,0,1,0
1582028598883,2930324,0,1,0
1582028598983,2931333,0,1,0
1582028599083,2930990,0,1,0
1582028599183,2929258,0,1,0
1582028599284,2927477,0,1,0
1582028599383,2926426,0,1,0
1582028599483,2925636,0,1,0
1582028599584,2925551,0,1,0
1582028599684,2926036,0,1,0
1582028599783,2926793,0,1,0
1582028599884,2927949,0,1,0
1582028599984,2929023,0,1,0
1582028600084,2928566,0,1,0
1582028600185,2927188,0,1,0
1582028600284,2926589,0,1,0
1582028600385,2926162,0,1,0
1582028600486,2926039,0,1,0
1582028600586,2926880,0,1,0
1582028600685,2928224,0,1,0
1582028600785,2929741,0,1,0
1582028600885,2931122,0,1,0
1582028600985,2930921,0,1,0
1582028601085,2930332,0,1,0
1582028601185,2930307,0,1,0
1582028601285,2930704,0,1,0
1582028601385,2931082,0,1,0
1582028601484,2931892,0,1,0
1582028601585,2933047,0,1,0
1582028601685,2934485,0,1,0
1582028601785,2935245,0,1,0
1582028601885,2934790,0,1,0
1582028601985,2934504,0,1,0
1582028602085,2934829,0,1,0
1582028602185,2935243,0,1,0
1582028602286,2935810,0,1,0
1582028602385,2936671,0,1,0
1582028602486,2937933,0,1,0
1582028602586,2938034,0,1,0
1582028602686,2937329,0,1,0
1582028602785,2937315,0,1,0
1582028602886,2937389,0,1,0
1582028602986,2937695,0,1,0
1582028603086,2938196,0,1,0
1582028603186,2939040,0,1,0
1582028603288,2938827,0,1,0
1582028603386,2937763,0,1,0
1582028603486,2937241,0,1,0
1582028603586,2936920,0,1,0
1582028603687,2936709,0,1,0
1582028603787,2936925,0,1,0
1582028603886,2937320,0,1,0
1582028603986,2935880,0,1,0
1582028604089,2934254,0,1,0
1582028604187,2933418,0,1,0
1582028604287,2932621,0,1,0
1582028604387,2932183,0,1,0
1582028604487,2932404,0,1,0
1582028604587,2932480,0,1,0
1582028604687,2930703,0,1,0
1582028604787,2928596,0,1,0
1582028604887,2927383,0,1,0
1582028604987,2926687,0,1,0
1582028605087,2926525,0,1,0
1582028605187,2926843,0,1,0
1582028605288,2927832,0,1,0
1582028605387,2928804,0,1,0
1582028605487,2927197,0,1,0
1582028605588,2924821,0,1,0
1582028605688,2923508,0,1,0
1582028605788,2922415,0,1,0
1582028605888,2921690,0,1,0
1582028605988,2921776,0,1,0
1582028606088,2922558,0,1,0
1582028606188,2923556,0,1,0
1582028606288,2924841,0,1,0
1582028606388,2924193,0,1,0
1582028606488,2922116,0,1,0
1582028606588,2920837,0,1,0
1582028606689,2919904,0,1,0
1582028606789,2919204,0,1,0
1582028606888,2919245,0,1,0
1582028606988,2920000,0,1,0
1582028607089,2921084,0,1,0
1582028607188,2922313,0,1,0
1582028607289,2923129,0,1,0
1582028607389,2921714,0,1,0
1582028607489,2920162,0,1,0
1582028607589,2919557,0,1,0
1582028607689,2919148,0,1,0
1582028607789,2919304,0,1,0
1582028607889,2919853,0,1,0
1582028607989,2921079,0,1,0
1582028608090,2922634,0,1,0
1582028608189,2923979,0,1,0
1582028608290,2922906,0,1,0
1582028608389,2921707,0,1,0
1582028608489,2921420,0,1,0
1582028608590,2921279,0,1,0
1582028608689,2921509,0,1,0
1582028608789,2922157,0,1,0
1582028608890,2923385,0,1,0
1582028608990,2924881,0,1,0
1582028609090,2925492,0,1,0
1582028609190,2924385,0,1,0
1582028609290,2923763,0,1,0
1582028609390,2924112,0,1,0
1582028609490,2924240,0,1,0
1582028609590,2924851,0,1,0
1582028609690,2925884,0,1,0
1582028609791,2927281,0,1,0
1582028609890,2927880,0,1,0
1582028609990,2926646,0,1,0
1582028610091,2926091,0,1,0
1582028610191,2926192,0,1,0
1582028610290,2926442,0,1,0
1582028610391,2926769,0,1,0
1582028610490,2927657,0,1,0
1582028610591,2928548,0,1,0
1582028610691,2927453,0,1,0
1582028610791,2925866,0,1,0
1582028610891,2925358,0,1,0
1582028610991,2924962,0,1,0
1582028611091,2924720,0,1,0
1582028611191,2925080,0,1,0
1582028611292,2925718,0,1,0
1582028611391,2925162,0,1,0
1582028611491,2923086,0,1,0
1582028611592,2921799,0,1,0
1582028611692,2921122,0,1,0
1582028611791,2920602,0,1,0
1582028611892,2920508,0,1,0
1582028611992,2921147,0,1,0
1582028612092,2922372,0,1,0
1582028612192,2920998,0,1,0
1582028612292,2918918,0,1,0
1582028612392,2917803,0,1,0
1582028612492,2917210,0,1,0
1582028612592,2916749,0,1,0
1582028612692,2917150,0,1,0
1582028612793,2918387,0,1,0
1582028612892,2919783,0,1,0
1582028612992,2919535,0,1,0
1582028613093,2917646,0,1,0
1582028613192,2916578,0,1,0
1582028613293,2916195,0,1,0
1582028613393,2915864,0,1,0
1582028613492,2916412,0,1,0
1582028613593,2917397,0,1,0
1582028613694,2919117,0,1,0
1582028613793,2920881,0,1,0
1582028613893,2921238,0,1,0
1582028613993,2919615,0,1,0
1582028614093,2918948,0,1,0
1582028614193,2918761,0,1,0
1582028614294,2918671,0,1,0
1582028614393,2919257,0,1,0
1582028614493,2920271,0,1,0
1582028614594,2921940,0,1,0
1582028614693,2923823,0,1,0
1582028614793,2924585,0,1,0
1582028614894,2923575,0,1,0
1582028614994,2923042,0,1,0
1582028615094,2923350,0,1,0
1582028615216,2923454,0,1,0
1582028615294,2924033,0,1,0
1582028615394,2925192,0,1,0
1582028615494,2926791,0,1,0
1582028615594,2928559,0,1,0
1582028615694,2929667,0,1,0
1582028615795,2929152,0,1,0
1582028615894,2928879,0,1,0
1582028615994,2929344,0,1,0
1582028616095,2929674,0,1,0
1582028616195,2930337,0,1,0
1582028616294,2931483,0,1,0
1582028616395,2932966,0,1,0
1582028616494,2934567,0,1,0
1582028616595,2934848,0,1,0
1582028616695,2934339,0,1,0
1582028616795,2934483,0,1,0
1582028616895,2935074,0,1,0
1582028616995,2935756,0,1,0
1582028617095,2936490,0,1,0
1582028617195,2937667,0,1,0
1582028617298,2938756,0,1,0
1582028617396,2938305,0,1,0
1582028617495,2937985,0,1,0
1582028617596,2938168,0,1,0
1582028617695,2938394,0,1,0
1582028617796,2938817,0,1,0
1582028617896,2939697,0,1,0
1582028617996,2940667,0,1,0
1582028618097,2940384,0,1,0
1582028618196,2939109,0,1,0
1582028618296,2938375,0,1,0
1582028618396,2937713,0,1,0
1582028618496,2937242,0,1,0
1582028618596,2937402,0,1,0
1582028618696,2938102,0,1,0
1582028618797,2938037,0,1,0
1582028618896,2936175,0,1,0
1582028618996,2934529,0,1,0
1582028619097,2933556,0,1,0
1582028619197,2932725,0,1,0
1582028619299,2932423,0,1,0
1582028619397,2932585,0,1,0
1582028619497,2933265,0,1,0
1582028619597,2933636,0,1,0
1582028619697,2932003,0,1,0
1582028619797,2929917,0,1,0
1582028619897,2928906,0,1,0
1582028619997,2928241,0,1,0
1582028620100,2927940,0,1,0
1582028620197,2928440,0,1,0
1582028620298,2929558,0,1,0
1582028620397,2930778,0,1,0
1582028620497,2931408,0,1,0
1582028620598,2929578,0,1,0
1582028620698,2928433,0,1,0
1582028620797,2927794,0,1,0
1582028620898,2927485,0,1,0
1582028620998,2927660,0,1,0
1582028621098,2928387,0,1,0
1582028621198,2929637,0,1,0
1582028621298,2931175,0,1,0
1582028621398,2932365,0,1,0
1582028621498,2931251,0,1,0
1582028621598,2930083,0,1,0
1582028621698,2929711,0,1,0
1582028621799,2929462,0,1,0
1582028621898,2929595,0,1,0
1582028621998,2930251,0,1,0
1582028622099,2931634,0,1,0
1582028622199,2933174,0,1,0
1582028622298,2934480,0,1,0
1582028622399,2933827,0,1,0
1582028622499,2933045,0,1,0
1582028622599,2932876,0,1,0
1582028622699,2932769,0,1,0
1582028622799,2933166,0,1,0
1582028622899,2934007,0,1,0
1582028622999,2935276,0,1,0
1582028623099,2936828,0,1,0
1582028623199,2938102,0,1,0
1582028623300,2937362,0,1,0
1582028623399,2936759,0,1,0
1582028623499,2936384,0,1,0
1582028623600,2936257,0,1,0
1582028623700,2935886,0,1,0
1582028623799,2936213,0,1,0
1582028623900,2936731,0,1,0
1582028624000,2937775,0,1,0
1582028624100,2937334,0,1,0
1582028624200,2936010,0,1,0
1582028624300,2935855,0,1,0
1582028624400,2935754,0,1,0
1582028624500,2935979,0,1,0
1582028624600,2936378,0,1,0
1582028624700,2937420,0,1,0
1582028624801,2938541,0,1,0
1582028624900,2937765,0,1,0
1582028625000,2937250,0,1,0
1582028625101,2937240,0,1,0
1582028625200,2937352,0,1,0
1582028625301,2937615,0,1,0
1582028625401,2938801,0,1,0
1582028625501,2939117,0,1,0
1582028625601,2937914,0,1,0
1582028625701,2936843,0,1,0
1582028625801,2936577,0,1,0
1582028625901,2934952,0,1,0
1582028626001,2932959,0,1,0
1582028626102,2931751,0,1,0
1582028626201,2929233,0,1,0
1582028626302,2924663,0,1,0
1582028626401,2921257,0,1,0
1582028626501,2918256,0,1,0
1582028626602,2915704,0,1,0
1582028626702,2913884,0,1,0
1582028626801,2910865,0,1,0
1582028626902,2907318,0,1,0
1582028627002,2904928,0,1,0
1582028627102,2902719,0,1,0
1582028627202,2900806,0,1,0
1582028627302,2899718,0,1,0
1582028627403,2898843,0,1,0
1582028627503,2896340,0,1,0
1582028627602,2894006,0,1,0
1582028627702,2892803,0,1,0
1582028627803,2891939,0,1,0
1582028627902,2891547,0,1,0
1582028628002,2891990,0,1,0
1582028628103,2892776,0,1,0
1582028628203,2891786,0,1,0
1582028628302,2889331,0,1,0
1582028628403,2887796,0,1,0
1582028628502,2887096,0,1,0
1582028628603,2886614,0,1,0
1582028628703,2887070,0,1,0
1582028628803,2888178,0,1,0
1582028628903,2889643,0,1,0
1582028629003,2891430,0,1,0
1582028629103,2893279,0,1,0
1582028629203,2892852,0,1,0
1582028629304,2890721,0,1,0
1582028629403,2889892,0,1,0
1582028629503,2889234,0,1,0
1582028629604,2889286,0,1,0
1582028629704,2890085,0,1,0
1582028629803,2891473,0,1,0
1582028629904,2893145,0,1,0
1582028630004,2894894,0,1,0
1582028630104,2895476,0,1,0
1582028630204,2893693,0,1,0
1582028630304,2892449,0,1,0
1582028630404,2892081,0,1,0
1582028630504,2892139,0,1,0
1582028630604,2892738,0,1,0
1582028630704,2894293,0,1,0
1582028630805,2896126,0,1,0
1582028630904,2898225,0,1,0
1582028631004,2900607,0,1,0
1582028631105,2900755,0,1,0
1582028631204,2899445,0,1,0
1582028631305,2898865,0,1,0
1582028631405,2899001,0,1,0
1582028631505,2899482,0,1,0
1582028631605,2900554,0,1,0
1582028631705,2901999,0,1,0
1582028631805,2904316,0,1,0
1582028631905,2906770,0,1,0
1582028632005,2909525,0,1,0
1582028632108,2910282,0,1,0
1582028632207,2909317,0,1,0
1582028632307,2909369,0,1,0
1582028632406,2909815,0,1,0
1582028632507,2910934,0,1,0
1582028632607,2912503,0,1,0
1582028632706,2914772,0,1,0
1582028632807,2917100,0,1,0
1582028632907,2919667,0,1,0
1582028633006,2921535,0,1,0
1582028633106,2921345,0,1,0
1582028633206,2920804,0,1,0
1582028633309,2920756,0,1,0
1582028633406,2921185,0,1,0
1582028633506,2921866,0,1,0
1582028633607,2923101,0,1,0
1582028633707,2924727,0,1,0
1582028633807,2926799,0,1,0
1582028633906,2929113,0,1,0
1582028634006,2930529,0,1,0
1582028634110,2930330,0,1,0
1582028634207,2929920,0,1,0
1582028634307,2930311,0,1,0
1582028634407,2930676,0,1,0
1582028634507,2931462,0,1,0
1582028634607,2932697,0,1,0
1582028634707,2934212,0,1,0
1582028634807,2936174,0,1,0
1582028634907,2937417,0,1,0
1582028635008,2937420,0,1,0
1582028635107,2937042,0,1,0
1582028635207,2937278,0,1,0
1582028635308,2937854,0,1,0
1582028635407,2938678,0,1,0
1582028635507,2939638,0,1,0
1582028635608,2940739,0,1,0
1582028635709,2941253,0,1,0
1582028635808,2940891,0,1,0
1582028635909,2940205,0,1,0
1582028636008,2939849,0,1,0
1582028636109,2940084,0,1,0
1582028636209,2940474,0,1,0
1582028636309,2940811,0,1,0
1582028636409,2941262,0,1,0
1582028636509,2942609,0,1,0
1582028636609,2943831,0,1,0
1582028636709,2942598,0,1,0
1582028636810,2942246,0,1,0
1582028636910,2941633,0,1,0
1582028637010,2941041,0,1,0
1582028637110,2941784,0,1,0
1582028637210,2943406,0,1,0
1582028637310,2945678,0,1,0
1582028637411,2945384,0,1,0
1582028637511,2943335,0,1,0
1582028637610,2940892,0,1,0
1582028637711,2938169,0,1,0
1582028637810,2935018,0,1,0
1582028637910,2932307,0,1,0
1582028638011,2930372,0,1,0
1582028638111,2927757,0,1,0
1582028638211,2922969,0,1,0
1582028638311,2917711,0,1,0
1582028638411,2911071,0,1,0
1582028638511,2906878,0,1,0
1582028638611,2906333,0,1,0
1582028638711,2911632,0,1,0
1582028638811,2914543,0,1,0
1582028638911,2920197,0,1,0
1582028639011,2929113,0,1,0
1582028639111,2939981,0,1,0
1582028639212,2952183,0,1,0
1582028639311,2957160,0,1,0
1582028639412,2961870,0,1,0
1582028639512,2968716,0,1,0
1582028639612,2972939,0,1,0
1582028639712,2973384,0,1,0
1582028639812,2972103,0,1,0
1582028639912,2970361,0,1,0
1582028640012,2969688,0,1,0
1582028640112,2970128,0,1,0
1582028640212,2969544,0,1,0
1582028640312,2969223,0,1,0
1582028640413,2969661,0,1,0
1582028640512,2973636,0,1,0
1582028640612,2977159,0,1,0
1582028640713,2979838,0,1,0
1582028640812,2982246,0,1,0
1582028640912,2985934,0,1,0
1582028641013,2989203,0,1,0
1582028641113,2991781,0,1,0
1582028641213,2994302,0,1,0
1582028641313,2995495,0,1,0
1582028641413,2995893,0,1,0
1582028641513,2996484,0,1,0
1582028641614,2996683,0,1,0
1582028641713,2996929,0,1,0
1582028641813,2996365,0,1,0
1582028641913,2994204,0,1,0
1582028642013,2993005,0,1,0
1582028642113,2992055,0,1,0
1582028642214,2990888,0,1,0
1582028642314,2990288,0,1,0
1582028642413,2988550,0,1,0
1582028642514,2985578,0,1,0
1582028642614,2983784,0,1,0
1582028642714,2982583,0,1,0
1582028642814,2981191,0,1,0
1582028642914,2980832,0,1,0
1582028643014,2981223,0,1,0
1582028643114,2980621,0,1,0
1582028643214,2976639,0,1,0
1582028643314,2974306,0,1,0
1582028643415,2972671,0,1,0
1582028643514,2970993,0,1,0
1582028643615,2970271,0,1,0
1582028643715,2970327,0,1,0
1582028643815,2970988,0,1,0
1582028643914,2971703,0,1,0
1582028644015,2971067,0,1,0
1582028644115,2966968,0,1,0
1582028644215,2964975,0,1,0
1582028644315,2963609,0,1,0
1582028644415,2962070,0,1,0
1582028644515,2961723,0,1,0
1582028644616,2962088,0,1,0
1582028644715,2962959,0,1,0
1582028644815,2963998,0,1,0
1582028644915,2964818,0,1,0
1582028645015,2961844,0,1,0
1582028645115,2959248,0,1,0
1582028645217,2958397,0,1,0
1582028645316,2956724,0,1,0
1582028645416,2956463,0,1,0
1582028645516,2956693,0,1,0
1582028645616,2956942,0,1,0
1582028645715,2956601,0,1,0
1582028645818,2958089,0,1,0
1582028645916,2960037,0,1,0
1582028646016,2957032,0,1,0
1582028646118,2957644,0,1,0
1582028646216,2960289,0,1,0
1582028646317,2962181,0,1,0
1582028646418,2961681,0,1,0
1582028646516,2960769,0,1,0
1582028646619,2960311,0,1,0
1582028646718,2959743,0,1,0
1582028646817,2953371,0,1,0
1582028646917,2946975,0,1,0
1582028647017,2942763,0,1,0
1582028647117,2938356,0,1,0
1582028647216,2934159,0,1,0
1582028647319,2935273,0,1,0
1582028647417,2939199,0,1,0
1582028647518,2936360,0,1,0
1582028647618,2933303,0,1,0
1582028647717,2930986,0,1,0
1582028647817,2927338,0,1,0
1582028647918,2923109,0,1,0
1582028648017,2920090,0,1,0
1582028648118,2917744,0,1,0
1582028648218,2910960,0,1,0
1582028648317,2904358,0,1,0
1582028648418,2900652,0,1,0
1582028648518,2897770,0,1,0
1582028648618,2896819,0,1,0
1582028648718,2897324,0,1,0
1582028648818,2901460,0,1,0
1582028648918,2907015,0,1,0
1582028649018,2914069,0,1,0
1582028649118,2921473,0,1,0
1582028649218,2927081,0,1,0
1582028649318,2932360,0,1,0
1582028649419,2937725,0,1,0
1582028649518,2940251,0,1,0
1582028649618,2939215,0,1,0
1582028649719,2940591,0,1,0
1582028649818,2942257,0,1,0
1582028649918,2943644,0,1,0
1582028650019,2945953,0,1,0
1582028650119,2948624,0,1,0
1582028650219,2950355,0,1,0
1582028650319,2946289,0,1,0
1582028650419,2940967,0,1,0
1582028650519,2937407,0,1,0
1582028650620,2933097,0,1,0
1582028650719,2929629,0,1,0
1582028650819,2928543,0,1,0
1582028650920,2926704,0,1,0
1582028651019,2921263,0,1,0
1582028651119,2916352,0,1,0
1582028651220,2914250,0,1,0
1582028651319,2910520,0,1,0
1582028651420,2908008,0,1,0
1582028651520,2906725,0,1,0
1582028651620,2906398,0,1,0
1582028651720,2906417,0,1,0
1582028651820,2904157,0,1,0
1582028651920,2902800,0,1,0
1582028652020,2904212,0,1,0
1582028652121,2904767,0,1,0
1582028652220,2906235,0,1,0
1582028652320,2908741,0,1,0
1582028652420,2911304,0,1,0
1582028652520,2913283,0,1,0
1582028652621,2914764,0,1,0
1582028652721,2913957,0,1,0
1582028652820,2914752,0,1,0
1582028652920,2916440,0,1,0
1582028653021,2917658,0,1,0
1582028653121,2919464,0,1,0
1582028653221,2921847,0,1,0
1582028653321,2924349,0,1,0
1582028653421,2926873,0,1,0
1582028653521,2927605,0,1,0
1582028653622,2927440,0,1,0
1582028653721,2929123,0,1,0
1582028653821,2930420,0,1,0
1582028653921,2931655,0,1,0
1582028654021,2933444,0,1,0
1582028654122,2935468,0,1,0
1582028654222,2937103,0,1,0
1582028654321,2938626,0,1,0
1582028654421,2938548,0,1,0
1582028654522,2939246,0,1,0
1582028654621,2940390,0,1,0
1582028654720,2941393,0,1,0
1582028654821,2942249,0,1,0
1582028654920,2943308,0,1,0
1582028655020,2944711,0,1,0
1582028655121,2945136,0,1,0
1582028655221,2944879,0,1,0
1582028655321,2945686,0,1,0
1582028655421,2946685,0,1,0
1582028655521,2947667,0,1,0
1582028655621,2948828,0,1,0
1582028655721,2950234,0,1,0
1582028655821,2951051,0,1,0
1582028655921,2952961,0,1,0
1582028656022,2956737,0,1,0
1582028656122,2965725,0,1,0
1582028656222,2969781,0,1,0
1582028656322,2975737,0,1,0
1582028656422,2979882,0,1,0
1582028656522,2980119,0,1,0
1582028656623,2979053,0,1,0
1582028656722,2984249,0,1,0
1582028656822,2993731,0,1,0
1582028656923,3007588,0,1,0
1582028657023,3020707,0,1,0
1582028657123,3027802,0,1,0
1582028657238,3033179,0,1,0
1582028657324,3039003,0,1,0
1582028657424,3041896,0,1,0
1582028657524,3041266,0,1,0
1582028657625,3039427,0,1,0
1582028657724,3038455,0,1,0
1582028657824,3037540,0,1,0
1582028657924,3036214,0,1,0
1582028658024,3034094,0,1,0
1582028658125,3030644,0,1,0
1582028658224,3028272,0,1,0
1582028658324,3025299,0,1,0
1582028658424,3022565,0,1,0
1582028658524,3019230,0,1,0
1582028658625,3019072,0,1,0
1582028658725,3023260,0,1,0
1582028658824,3025441,0,1,0
1582028658924,3027962,0,1,0
1582028659025,3032476,0,1,0
1582028659125,3038590,0,1,0
1582028659225,3045254,0,1,0
1582028659325,3050154,0,1,0
1582028659425,3054118,0,1,0
1582028659525,3057714,0,1,0
1582028659625,3060850,0,1,0
1582028659739,3064488,0,1,0
1582028659955,3069091,0,1,0
1582028660051,3069856,0,1,0
1582028660133,3062255,0,1,0
1582028660231,3076822,0,1,0
1582028660326,3108987,0,1,0
1582028660427,3107953,0,1,0
1582028660527,3105966,0,1,0
1582028660631,3104114,0,1,0
1582028660728,3104167,0,1,0
1582028660828,3104729,0,1,0
1582028660927,3102872,0,1,0
1582028661036,3101768,0,1,0
1582028661128,3102126,0,1,0
1582028661228,3103445,0,1,0
1582028661328,3104363,0,1,0
1582028661428,3104941,0,1,0
1582028661528,3102977,0,1,0
1582028661628,3100760,0,1,0
1582028661728,3100589,0,1,0
1582028661835,3101943,0,1,0
1582028661930,3103900,0,1,0
1582028662029,3105160,0,1,0
1582028662130,3104713,0,1,0
1582028662228,3103302,0,1,0
1582028662329,3102574,0,1,0
1582028662428,3101293,0,1,0
1582028662528,3099998,0,1,0
1582028662629,3099064,0,1,0
1582028662729,3098056,0,1,0
1582028662829,3094923,0,1,0
1582028662929,3091187,0,1,0
1582028663139,3089311,0,1,0
1582028663227,3072559,0,1,0
1582028663329,3078201,0,1,0
1582028663439,3075039,0,1,0
1582028663528,3071235,0,1,0
1582028663628,3067886,0,1,0
1582028663728,3065980,0,1,0
1582028663830,3063561,0,1,0
1582028663929,3061517,0,1,0
1582028664029,3058630,0,1,0
1582028664130,3054831,0,1,0
1582028664229,3052526,0,1,0
1582028664329,3051033,0,1,0
1582028664429,3049535,0,1,0
1582028664529,3048568,0,1,0
1582028664629,3047486,0,1,0
1582028664729,3044338,0,1,0
1582028664828,3042559,0,1,0
1582028664928,3041566,0,1,0
1582028665029,3040511,0,1,0
1582028665129,3040098,0,1,0
1582028665229,3039988,0,1,0
1582028665329,3037855,0,1,0
1582028665429,3036314,0,1,0
1582028665529,3036202,0,1,0
1582028665630,3035791,0,1,0
1582028665729,3035859,0,1,0
1582028665829,3036113,0,1,0
1582028665930,3036518,0,1,0
1582028666029,3034810,0,1,0
1582028666130,3034684,0,1,0
1582028666230,3035001,0,1,0
1582028666330,3035072,0,1,0
1582028666429,3035472,0,1,0
1582028666530,3036213,0,1,0
1582028666630,3036909,0,1,0
1582028666730,3036049,0,1,0
1582028666830,3036306,0,1,0
1582028666930,3036962,0,1,0
1582028667030,3037090,0,1,0
1582028667130,3037813,0,1,0
1582028667230,3038651,0,1,0
1582028667330,3039058,0,1,0
1582028667431,3038746,0,1,0
1582028667530,3039226,0,1,0
1582028667633,3039736,0,1,0
1582028667731,3040225,0,1,0
1582028667830,3041018,0,1,0
1582028667930,3041724,0,1,0
1582028668031,3041828,0,1,0
1582028668131,3041969,0,1,0
1582028668231,3042639,0,1,0
1582028668331,3043488,0,1,0
1582028668431,3044056,0,1,0
1582028668531,3044493,0,1,0
1582028668631,3044718,0,1,0
1582028668731,3043799,0,1,0
1582028668831,3043025,0,1,0
1582028668931,3042311,0,1,0
1582028669031,3040979,0,1,0
1582028669131,3040064,0,1,0
1582028669232,3038129,0,1,0
1582028669332,3036994,0,1,0
1582028669432,3036023,0,1,0
1582028669532,3034956,0,1,0
1582028669632,3033629,0,1,0
1582028669732,3033999,0,1,0
1582028669832,3036019,0,1,0
1582028669932,3037534,0,1,0
1582028670032,3039422,0,1,0
1582028670133,3041833,0,1,0
1582028670232,3044046,0,1,0
1582028670332,3046863,0,1,0
1582028670432,3048946,0,1,0
1582028670532,3050394,0,1,0
1582028670633,3051527,0,1,0
1582028670733,3051349,0,1,0
1582028670832,3050889,0,1,0
1582028670932,3050560,0,1,0
1582028671033,3049120,0,1,0
1582028671133,3047841,0,1,0
1582028671233,3048425,0,1,0
1582028671333,3044540,0,1,0
1582028671433,3042642,0,1,0
1582028671533,3042858,0,1,0
1582028671634,3042397,0,1,0
1582028671733,3041879,0,1,0
1582028671833,3041805,0,1,0
1582028671933,3041344,0,1,0
1582028672033,3041118,0,1,0
1582028672133,3040322,0,1,0
1582028672234,3038886,0,1,0
1582028672333,3037910,0,1,0
1582028672433,3037244,0,1,0
1582028672534,3036067,0,1,0
1582028672634,3035417,0,1,0
1582028672734,3033190,0,1,0
1582028672834,3031294,0,1,0
1582028672934,3030146,0,1,0
1582028673034,3028592,0,1,0
1582028673134,3027489,0,1,0
1582028673234,3025651,0,1,0
1582028673334,3022797,0,1,0
1582028673435,3021212,0,1,0
1582028673534,3019567,0,1,0
1582028673635,3018176,0,1,0
1582028673735,3017057,0,1,0
1582028673835,3015048,0,1,0
1582028673934,3011715,0,1,0
1582028674035,3010119,0,1,0
1582028674140,3008357,0,1,0
1582028674235,3006734,0,1,0
1582028674335,3005799,0,1,0
1582028674435,3005300,0,1,0
1582028674535,3004934,0,1,0
1582028674636,3002681,0,1,0
1582028674735,2999594,0,1,0
1582028674835,2998138,0,1,0
1582028674935,2996557,0,1,0
1582028675035,2995461,0,1,0
1582028675135,2994826,0,1,0
1582028675236,2994639,0,1,0
1582028675337,2994625,0,1,0
1582028675436,2993707,0,1,0
1582028675536,2991943,0,1,0
1582028675637,2991996,0,1,0
1582028675734,2992296,0,1,0
1582028675835,2992718,0,1,0
1582028675934,2993667,0,1,0
1582028676035,2994852,0,1,0
1582028676135,2995957,0,1,0
1582028676235,2996901,0,1,0
1582028676334,2995449,0,1,0
1582028676437,2994929,0,1,0
1582028676535,2995310,0,1,0
1582028676637,2995374,0,1,0
1582028676736,2995500,0,1,0
1582028676836,2996343,0,1,0
1582028676936,2996765,0,1,0
1582028677036,2996530,0,1,0
1582028677136,2995307,0,1,0
1582028677236,2995116,0,1,0
1582028677339,2995217,0,1,0
1582028677436,2996188,0,1,0
1582028677537,2993937,0,1,0
1582028677638,2991759,0,1,0
1582028677737,2994480,0,1,0
1582028677837,2991696,0,1,0
1582028677938,2990893,0,1,0
1582028678037,2997786,0,1,0
1582028678138,3000412,0,1,0
1582028678239,3003127,0,1,0
1582028678338,3006764,0,1,0
1582028678438,3008502,0,1,0
1582028678538,3008458,0,1,0
1582028678638,3007571,0,1,0
1582028678738,3007487,0,1,0
1582028678838,3007354,0,1,0
1582028678938,3007325,0,1,0
1582028679038,3007421,0,1,0
1582028679138,3008367,0,1,0
1582028679238,3009187,0,1,0
1582028679338,3010050,0,1,0
1582028679438,3011926,0,1,0
1582028679538,3013362,0,1,0
1582028679638,3013821,0,1,0
1582028679739,3015138,0,1,0
1582028679838,3017524,0,1,0
1582028679938,3020482,0,1,0
1582028680039,3023857,0,1,0
1582028680139,3028446,0,1,0
1582028680239,3031434,0,1,0
1582028680339,3034486,0,1,0
1582028680438,3036978,0,1,0
1582028680539,3039419,0,1,0
1582028680639,3041140,0,1,0
1582028680739,3042212,0,1,0
1582028680839,3043561,0,1,0
1582028680940,3044405,0,1,0
1582028681039,3044483,0,1,0
1582028681139,3044005,0,1,0
1582028681240,3041875,0,1,0
1582028681340,3040142,0,1,0
1582028681439,3040212,0,1,0
1582028681540,3039437,0,1,0
1582028681640,3039173,0,1,0
1582028681740,3038881,0,1,0
1582028681840,3038443,0,1,0
1582028681940,3037638,0,1,0
1582028682040,3037206,0,1,0
1582028682141,3037217,0,1,0
1582028682240,3037333,0,1,0
1582028682340,3037787,0,1,0
1582028682440,3037753,0,1,0
1582028682540,3037831,0,1,0
1582028682640,3037834,0,1,0
1582028682741,3037529,0,1,0
1582028682840,3037035,0,1,0
1582028682940,3036437,0,1,0
1582028683042,3034920,0,1,0
1582028683141,3033918,0,1,0
1582028683241,3033205,0,1,0
1582028683341,3032404,0,1,0
1582028683440,3032237,0,1,0
1582028683541,3031163,0,1,0
1582028683641,3030144,0,1,0
1582028683741,3029641,0,1,0
1582028683841,3029284,0,1,0
1582028683942,3029068,0,1,0
1582028684041,3028941,0,1,0
1582028684142,3028214,0,1,0
1582028684242,3027146,0,1,0
1582028684341,3026714,0,1,0
1582028684441,3026211,0,1,0
1582028684542,3025954,0,1,0
1582028684642,3026258,0,1,0
1582028684742,3026421,0,1,0
1582028684842,3025343,0,1,0
1582028684942,3023860,0,1,0
1582028685042,3022869,0,1,0
1582028685143,3022290,0,1,0
1582028685242,3021602,0,1,0
1582028685342,3021898,0,1,0
1582028685442,3022243,0,1,0
1582028685542,3022418,0,1,0
1582028685643,3021151,0,1,0
1582028685743,3020359,0,1,0
1582028685842,3020887,0,1,0
1582028685943,3020808,0,1,0
1582028686043,3020047,0,1,0
1582028686143,3018841,0,1,0
1582028686243,3017350,0,1,0
1582028686343,3014347,0,1,0
1582028686442,3012228,0,1,0
1582028686543,3011112,0,1,0
1582028686644,3008892,0,1,0
1582028686744,3007404,0,1,0
1582028686843,3007481,0,1,0
1582028686943,3009159,0,1,0
1582028687043,3010510,0,1,0
1582028687143,3011838,0,1,0
1582028687248,3013722,0,1,0
1582028687344,3015441,0,1,0
1582028687443,3017538,0,1,0
1582028687544,3019443,0,1,0
1582028687644,3020823,0,1,0
1582028687744,3020615,0,1,0
1582028687844,3020598,0,1,0
1582028687944,3021010,0,1,0
1582028688044,3021236,0,1,0
1582028688144,3021830,0,1,0
1582028688244,3021754,0,1,0
1582028688344,3020380,0,1,0
1582028688444,3019673,0,1,0
1582028688544,3019225,0,1,0
1582028688644,3018565,0,1,0
1582028688745,3017903,0,1,0
1582028688844,3017376,0,1,0
1582028688944,3016350,0,1,0
1582028689045,3015604,0,1,0
1582028689145,3015284,0,1,0
1582028689245,3015253,0,1,0
1582028689345,3015276,0,1,0
1582028689444,3015501,0,1,0
1582028689545,3013752,0,1,0
1582028689645,3011099,0,1,0
1582028689745,3009204,0,1,0
1582028689845,3007347,0,1,0
1582028689945,3006356,0,1,0
1582028690045,3004455,0,1,0
1582028690148,3002120,0,1,0
1582028690246,3000488,0,1,0
1582028690347,3000552,0,1,0
1582028690445,3001865,0,1,0
1582028690546,3002762,0,1,0
1582028690646,3002133,0,1,0
1582028690746,3002675,0,1,0
1582028690846,3003393,0,1,0
1582028690946,3004188,0,1,0
1582028691046,3004875,0,0,0
1582028691146,3004526,0,0,0
1582028691246,3004349,0,0,0
1582028691348,3004919,0,0,0
1582028691446,3005019,0,0,0
1582028691546,3005659,0,0,0
1582028691651,3005388,0,0,0
1582028691747,3004060,0,0,0
1582028691846,3004495,0,0,0
1582028691947,3005493,0,0,0
1582028692047,3006424,0,2,0
1582028692148,3009495,0,2,0
1582028692247,3010139,0,2,0
1582028692347,3011662,0,2,0
1582028692446,3012434,0,2,0
1582028692547,3014183,0,2,0
1582028692648,3016746,0,2,0
1582028692747,3018879,0,2,0
1582028692853,3021041,0,2,0
1582028693048,3020802,0,2,0
1582028693052,3015472,0,2,0
1582028693148,3014033,0,2,0
1582028693248,3015050,0,2,0
1582028693350,3015426,0,2,0
1582028693448,3016366,0,2,0
1582028693550,3016666,0,2,0
1582028693650,3016916,0,2,0
1582028693753,3017447,0,2,0
1582028693851,3018014,0,2,0
1582028693949,3018551,0,2,0
1582028694049,3019147,0,2,0
1582028694152,3019046,0,2,0
1582028694250,3019472,0,2,0
1582028694349,3020613,0,2,0
1582028694450,3021638,0,2,0
1582028694550,3022660,0,2,0
1582028694650,3024061,0,2,0
1582028694750,3024800,0,2,0
1582028694850,3025808,0,2,0
1582028694950,3026774,0,2,0
1582028695052,3026643,0,2,0
1582028695153,3009845,0,2,0
1582028695252,3083422,0,2,0
1582028695352,3100376,0,2,0
1582028695451,3124921,0,2,0
1582028695551,3152357,0,2,0
1582028695652,3169952,0,2,0
1582028695751,3162667,0,2,0
1582028695851,3153495,0,2,0
1582028695951,3140675,0,2,0
1582028696053,3130033,0,2,0
1582028696151,3121039,0,2,0
1582028696251,3114249,0,2,0
1582028696351,3107198,0,2,0
1582028696450,3103844,0,2,0
1582028696551,3099111,0,2,0
1582028696652,3095376,0,2,0
1582028696751,3090513,0,2,0
1582028696852,3085994,0,2,0
1582028696951,3082618,0,2,0
1582028697051,3078563,0,2,0
1582028697153,3076252,0,2,0
1582028697252,3073713,0,2,0
1582028697352,3072336,0,2,0
1582028697452,3069877,0,2,0
1582028697552,3068311,0,2,0
1582028697678,3065801,0,2,0
1582028697761,3064685,0,2,0
1582028697851,3067052,0,2,0
1582028697950,3071719,0,2,0
1582028698053,3070125,0,2,0
1582028698151,3065331,0,2,0
1582028698251,3058037,0,2,0
1582028698351,3052502,0,2,0
1582028698450,3047031,0,2,0
1582028698551,3042271,0,2,0
1582028698651,3041667,0,2,0
1582028698751,3038486,0,2,0
1582028698851,3034949,0,2,0
1582028698951,3032771,0,2,0
1582028699051,3029859,0,2,0
1582028699151,3026114,0,2,0
1582028699252,3022920,0,2,0
1582028699352,3019989,0,2,0
1582028699451,3019001,0,2,0
1582028699552,3014588,0,2,0
1582028699652,3010597,0,2,0
1582028699752,3008377,0,2,0
1582028699852,3006785,0,2,0
1582028699952,3006768,0,2,0
1582028700052,3009094,0,2,0
1582028700153,3011376,0,2,0
1582028700252,3013276,0,2,0
1582028700352,3017242,0,2,0
1582028700452,3018708,0,2,0
1582028700552,3017035,0,2,0
1582028700653,3016210,0,2,0
1582028700753,3015447,0,2,0
1582028700852,3013349,0,2,0
1582028700953,3011569,0,2,0
1582028701053,3010350,0,2,0
1582028701153,3007979,0,2,0
1582028701253,3005669,0,2,0
1582028701353,3004032,0,2,0
1582028701452,3001597,0,2,0
1582028701553,2999129,0,2,0
1582028701654,2997057,0,2,0
1582028701753,2995263,0,2,0
1582028701853,2991446,0,2,0
1582028701953,2989543,0,2,0
1582028702053,2988583,0,2,0
1582028702154,2984626,0,2,0
1582028702254,2982360,0,2,0
1582028702354,2980704,0,2,0
1582028702453,2978124,0,2,0
1582028702554,2976555,0,2,0
1582028702654,2974241,0,2,0
1582028702754,2972016,0,2,0
1582028702854,2969079,0,2,0
1582028702954,2965572,0,2,0
1582028703054,2962414,0,2,0
1582028703154,2960182,0,2,0
1582028703254,2957738,0,2,0
1582028703354,2955788,0,2,0
1582028703454,2954120,0,2,0
1582028703554,2952536,0,2,0
1582028703654,2950606,0,2,0
1582028703755,2949578,0,2,0
1582028703855,2948512,0,2,0
1582028703954,2946227,0,2,0
1582028704055,2944815,0,2,0
1582028704155,2943242,0,2,0
1582028704255,2941767,0,2,0
1582028704356,2940304,0,2,0
1582028704454,2939797,0,2,0
1582028704555,2936588,0,2,0
1582028704656,2935858,0,2,0
1582028704755,2935294,0,2,0
1582028704855,2935086,0,2,0
1582028704956,2936602,0,2,0
1582028705055,2946547,0,2,0
1582028705155,2939600,0,2,0
1582028705256,2937031,0,2,0
1582028705357,2934855,0,2,0
1582028705455,2931242,0,2,0
1582028705556,2929437,0,2,0
1582028705656,2927450,0,2,0
1582028705756,2924705,0,2,0
1582028705856,2922045,0,2,0
1582028705956,2920667,0,2,0
1582028706056,2918635,0,2,0
1582028706159,2917645,0,2,0
1582028706256,2916697,0,2,0
1582028706356,2912945,0,2,0
1582028706456,2912619,0,2,0
1582028706556,2912254,0,2,0
1582028706659,2909910,0,2,0
1582028706757,2908384,0,2,0
1582028706857,2908476,0,2,0
1582028706957,2908381,0,2,0
1582028707057,2909469,0,2,0
1582028707157,2909905,0,2,0
1582028707257,2910761,0,2,0
1582028707359,2912712,0,2,0
1582028707456,2919745,0,2,0
1582028707557,2920348,0,2,0
1582028707658,2916900,0,2,0
1582028707757,2914939,0,2,0
1582028707857,2912915,0,2,0
1582028707958,2912131,0,2,0
1582028708058,2909244,0,2,0
1582028708158,2908063,0,2,0
1582028708258,2907480,0,2,0
1582028708358,2905254,0,2,0
1582028708457,2903579,0,2,0
1582028708558,2904114,0,2,0
1582028708658,2903884,0,2,0
1582028708758,2902709,0,2,0
1582028708858,2902306,0,2,0
1582028708958,2900528,0,2,0
1582028709058,2899903,0,2,0
1582028709159,2899049,0,2,0
1582028709258,2898584,0,2,0
1582028709358,2896676,0,2,0
1582028709458,2896429,0,2,0
1582028709558,2895423,0,2,0
1582028709658,2893321,0,2,0
1582028709759,2891217,0,2,0
1582028709858,2890497,0,2,0
1582028709958,2888957,0,2,0
1582028710059,2887027,0,2,0
1582028710159,2886530,0,2,0
1582028710260,2885634,0,2,0
1582028710359,2884559,0,2,0
1582028710458,2884186,0,2,0
1582028710559,2884331,0,2,0
1582028710660,2884147,0,2,0
1582028710759,2882197,0,2,0
1582028710859,2889258,0,2,0
1582028710959,2886745,0,2,0
1582028711060,2882339,0,2,0
1582028711160,2879584,0,2,0
1582028711260,2878703,0,2,0
1582028711360,2877913,0,2,0
1582028711459,2876626,0,2,0
1582028711560,2876662,0,2,0
1582028711660,2876117,0,2,0
1582028711760,2875317,0,2,0
1582028711860,2874469,0,2,0
1582028711960,2873138,0,2,0
1582028712060,2872225,0,2,0
1582028712161,2872101,0,2,0
1582028712260,2871257,0,2,0
1582028712360,2871127,0,2,0
1582028712460,2869462,0,2,0
1582028712562,2868178,0,2,0
1582028712661,2867703,0,2,0
1582028712761,2867318,0,2,0
1582028712860,2866224,0,2,0
1582028712960,2865403,0,2,0
1582028713061,2864190,0,2,0
1582028713161,2862574,0,2,0
1582028713261,2861205,0,2,0
1582028713362,2860305,0,2,0
1582028713460,2859084,0,2,0
1582028713561,2858657,0,2,0
1582028713662,2857870,0,2,0
1582028713763,2855705,0,2,0
1582028713861,2856033,0,2,0
1582028713961,2854735,0,2,0
1582028714061,2853762,0,2,0
1582028714162,2854344,0,2,0
1582028714262,2852946,0,2,0
1582028714362,2852590,0,2,0
1582028714461,2851705,0,2,0
1582028714562,2850480,0,2,0
1582028714662,2846177,0,2,0
1582028714762,2844169,0,2,0
1582028714862,2843610,0,2,0
1582028714962,2842692,0,2,0
1582028715062,2842307,0,2,0
1582028715162,2840802,0,2,0
1582028715262,2838415,0,2,0
1582028715362,2838355,0,2,0
1582028715462,2836616,0,2,0
1582028715562,2836313,0,2,0
1582028715663,2834755,0,2,0
1582028715763,2834174,0,2,0
1582028715862,2833336,0,2,0
1582028715962,2831838,0,2,0
1582028716063,2830801,0,2,0
1582028716163,2830605,0,2,0
1582028716263,2830289,0,2,0
1582028716363,2829320,0,2,0
1582028716462,2829360,0,2,0
1582028716563,2829741,0,2,0
1582028716664,2827886,0,2,0
1582028716763,2826676,0,2,0
1582028716863,2827103,0,2,0
1582028716963,2826150,0,2,0
1582028717063,2826255,0,2,0
1582028717163,2826294,0,2,0
1582028717264,2826998,0,2,0
1582028717364,2826330,0,2,0
1582028717463,2825970,0,2,0
1582028717564,2826857,0,2,0
1582028717664,2826819,0,2,0
1582028717764,2827752,0,2,0
1582028717864,2827116,0,2,0
1582028717964,2828759,0,2,0
1582028718064,2825679,0,2,0
1582028718165,2825756,0,2,0
1582028718264,2826102,0,2,0
1582028718364,2826456,0,2,0
1582028718464,2826178,0,2,0
1582028718564,2825493,0,2,0
1582028718665,2825720,0,2,0
1582028718765,2825872,0,2,0
1582028718864,2824636,0,2,0
1582028718964,2823865,0,2,0
1582028719065,2823661,0,2,0
1582028719165,2824644,0,2,0
1582028719265,2823887,0,2,0
1582028719365,2829708,0,2,0
1582028719464,2869669,0,2,0
1582028719565,2891598,0,2,0
1582028719665,2873488,0,2,0
1582028719765,2865054,0,2,0
1582028719865,2850665,0,2,0
1582028719965,2839871,0,2,0
1582028720065,2835406,0,2,0
1582028720168,2833876,0,2,0
1582028720266,2832302,0,2,0
1582028720366,2831332,0,2,0
1582028720466,2828879,0,2,0
1582028720566,2830298,0,2,0
1582028720666,2829144,0,2,0
1582028720766,2830014,0,2,0
1582028720866,2825839,0,2,0
1582028720966,2825105,0,2,0
1582028721066,2824718,0,2,0
1582028721167,2824990,0,2,0
1582028721266,2824702,0,2,0
1582028721368,2820350,0,2,0
1582028721467,2819855,0,2,0
1582028721566,2820068,0,2,0
1582028721668,2818203,0,2,0
1582028721767,2817439,0,2,0
1582028721867,2818591,0,2,0
1582028721967,2818115,0,2,0
1582028722067,2818391,0,2,0
1582028722169,2818675,0,2,0
1582028722267,2816546,0,2,0
1582028722367,2818235,0,2,0
1582028722466,2818089,0,2,0
1582028722568,2821069,0,2,0
1582028722668,2822431,0,2,0
1582028722768,2823762,0,2,0
1582028722867,2821910,0,2,0
1582028722968,2820251,0,2,0
1582028723068,2819097,0,2,0
1582028723168,2819373,0,2,0
1582028723268,2818799,0,2,0
1582028723368,2819395,0,2,0
1582028723467,2818808,0,2,0
1582028723569,2817081,0,2,0
1582028723668,2818137,0,2,0
1582028723768,2816662,0,2,0
1582028723868,2815013,0,2,0
1582028723968,2813516,0,2,0
1582028724068,2812438,0,2,0
1582028724169,2808160,0,2,0
1582028724268,2807081,0,2,0
1582028724368,2804920,0,2,0
1582028724468,2805194,0,2,0
1582028724569,2804139,0,2,0
1582028724669,2804454,0,2,0
1582028724769,2804666,0,2,0
1582028724869,2803617,0,2,0
1582028724969,2804460,0,2,0
1582028725069,2804124,0,2,0
1582028725169,2802477,0,2,0
1582028725269,2802987,0,2,0
1582028725369,2803024,0,2,0
1582028725468,2801568,0,2,0
1582028725569,2802089,0,2,0
1582028725670,2801328,0,2,0
1582028725769,2800533,0,2,0
1582028725869,2801053,0,2,0
1582028725970,2800757,0,2,0
1582028726069,2801759,0,2,0
1582028726171,2801328,0,2,0
1582028726270,2801471,0,2,0
1582028726370,2802282,0,2,0
1582028726469,2800857,0,2,0
1582028726570,2802256,0,2,0
1582028726670,2802099,0,2,0
1582028726771,2801256,0,2,0
1582028726872,2802604,0,2,0
1582028726971,2802309,0,2,0
1582028727071,2802887,0,2,0
1582028727171,2803248,0,2,0
1582028727271,2803905,0,2,0
1582028727371,2803731,0,2,0
1582028727470,2804629,0,2,0
1582028727571,2804385,0,2,0
1582028727671,2805043,0,2,0
1582028727771,2805484,0,2,0
1582028727870,2807326,0,2,0
1582028727970,2804448,0,2,0
1582028728071,2805382,0,2,0
1582028728171,2802446,0,2,0
1582028728271,2801902,0,2,0
1582028728371,2801635,0,2,0
1582028728470,2801714,0,2,0
1582028728571,2800464,0,2,0
1582028728672,2799279,0,2,0
1582028728771,2800216,0,2,0
1582028728871,2799554,0,2,0
1582028728971,2799001,0,2,0
1582028729071,2799373,0,2,0
1582028729171,2799409,0,2,0
1582028729272,2799648,0,2,0
1582028729372,2800484,0,2,0
1582028729471,2799491,0,2,0
1582028729572,2799945,0,2,0
1582028729672,2799872,0,2,0
1582028729772,2804566,0,2,0
1582028729872,2805226,0,2,0
1582028729972,2805854,0,2,0
1582028730072,2802447,0,2,0
1582028730173,2798490,0,2,0
1582028730272,2797123,0,2,0
1582028730372,2798108,0,2,0
1582028730472,2794822,0,2,0
1582028730572,2787259,0,2,0
1582028730673,2784649,0,2,0
1582028730773,2784906,0,2,0
1582028730872,2785181,0,2,0
1582028730972,2786237,0,2,0
1582028731073,2786825,0,2,0
1582028731173,2787514,0,2,0
1582028731273,2787839,0,2,0
1582028731373,2787466,0,2,0
1582028731472,2788308,0,2,0
1582028731573,2788771,0,2,0
1582028731674,2789126,0,2,0
1582028731773,2789925,0,2,0
1582028731873,2790434,0,2,0
1582028731973,2790300,0,2,0
1582028732073,2789332,0,2,0
1582028732174,2788309,0,2,0
1582028732274,2789515,0,2,0
1582028732374,2799968,0,2,0
1582028732473,2800601,0,2,0
1582028732574,2789240,0,2,0
1582028732674,2795778,0,2,0
1582028732774,2802222,0,2,0
1582028732874,2809859,0,2,0
1582028732974,2815122,0,2,0
1582028733074,2820011,0,2,0
1582028733174,2823829,0,2,0
1582028733274,2827012,0,2,0
1582028733374,2829895,0,2,0
1582028733474,2831936,0,2,0
1582028733574,2833625,0,2,0
1582028733674,2835445,0,2,0
1582028733776,2836481,0,2,0
1582028733875,2835753,0,2,0
1582028733974,2836837,0,2,0
1582028734075,2840584,0,2,0
1582028734175,2845339,0,2,0
1582028734275,2850644,0,2,0
1582028734375,2856177,0,2,0
1582028734474,2861605,0,2,0
1582028734575,2866103,0,2,0
1582028734676,2870446,0,2,0
1582028734775,2874198,0,2,0
1582028734875,2877656,0,2,0
1582028734977,2879955,0,2,0
1582028735076,2882033,0,2,0
1582028735176,2883621,0,2,0
1582028735276,2883048,0,2,0
1582028735377,2879609,0,2,0
1582028735475,2876576,0,2,0
1582028735578,2875744,0,2,0
1582028735676,2875851,0,2,0
1582028735776,2877853,0,2,0
1582028735876,2880719,0,2,0
1582028735976,2883745,0,2,0
1582028736076,2886957,0,2,0
1582028736179,2889336,0,2,0
1582028736276,2891382,0,2,0
1582028736376,2892922,0,2,0
1582028736476,2894358,0,2,0
1582028736577,2895554,0,2,0
1582028736677,2896889,0,2,0
1582028736777,2897953,0,2,0
1582028736877,2898862,0,2,0
1582028736977,2899938,0,2,0
1582028737077,2901066,0,2,0
1582028737177,2901842,0,2,0
1582028737277,2902030,0,2,0
1582028737379,2901623,0,2,0
1582028737476,2901343,0,2,0
1582028737578,2900816,0,2,0
1582028737678,2900089,0,2,0
1582028737777,2899655,0,2,0
1582028737877,2899406,0,2,0
1582028737978,2899102,0,2,0
1582028738078,2898930,0,2,0
1582028738178,2898430,0,2,0
1582028738278,2898216,0,2,0
1582028738378,2897527,0,2,0
1582028738477,2897269,0,2,0
1582028738578,2896790,0,2,0
1582028738678,2896567,0,2,0
1582028738778,2896035,0,2,0
1582028738878,2895657,0,2,0
1582028738978,2895363,0,2,0
1582028739078,2894991,0,2,0
1582028739178,2894937,0,2,0
1582028739278,2894754,0,2,0
1582028739378,2894628,0,2,0
1582028739478,2894251,0,2,0
1582028739578,2893674,0,2,0
1582028739678,2893102,0,2,0
1582028739779,2892719,0,2,0
1582028739878,2892425,0,2,0
1582028739979,2892328,0,2,0
1582028740079,2892287,0,2,0
1582028740179,2891929,0,2,0
1582028740279,2891631,0,2,0
1582028740379,2891472,0,2,0
1582028740478,2891019,0,2,0
1582028740580,2890621,0,2,0
1582028740680,2890346,0,2,0
1582028740779,2890218,0,2,0
1582028740879,2890024,0,2,0
1582028740980,2889771,0,2,0
1582028741080,2889413,0,2,0
1582028741180,2889257,0,2,0
1582028741280,2889210,0,2,0
1582028741380,2889360,0,2,0
1582028741480,2889378,0,2,0
1582028741580,2889065,0,2,0
1582028741680,2888969,0,2,0
1582028741780,2888919,0,2,0
1582028741880,2888985,0,2,0
1582028741980,2889160,0,2,0
1582028742080,2889114,0,2,0
1582028742181,2889176,0,2,0
1582028742280,2887781,0,2,0
1582028742380,2887243,0,2,0
1582028742480,2887161,0,2,0
1582028742581,2887253,0,2,0
1582028742680,2886667,0,2,0
1582028742781,2886774,0,2,0
1582028742880,2886574,0,2,0
1582028742980,2887206,0,2,0
1582028743081,2886009,0,2,0
1582028743181,2883369,0,2,0
1582028743281,2881765,0,2,0
1582028743381,2884085,0,2,0
1582028743480,2885809,0,2,0
1582028743581,2885793,0,2,0
1582028743681,2884704,0,2,0
1582028743781,2884144,0,2,0
1582028743881,2883155,0,2,0
1582028743981,2882328,0,2,0
1582028744081,2881755,0,2,0
1582028744182,2880496,0,2,0
1582028744282,2879048,0,2,0
1582028744382,2878150,0,2,0
1582028744481,2876936,0,2,0
1582028744582,2875969,0,2,0
1582028744682,2874966,0,2,0
1582028744782,2873411,0,2,0
1582028744882,2871702,0,2,0
1582028744982,2870450,0,2,0
1582028745082,2868935,0,2,0
1582028745182,2867566,0,2,0
1582028745282,2867013,0,2,0
1582028745382,2865464,0,2,0
1582028745482,2863711,0,2,0
1582028745583,2862927,0,2,0
1582028745683,2862137,0,2,0
1582028745783,2861685,0,2,0
1582028745882,2861537,0,2,0
1582028745982,2860419,0,2,0
1582028746083,2859526,0,2,0
1582028746183,2858965,0,2,0
1582028746283,2858801,0,2,0
1582028746383,2859086,0,2,0
1582028746482,2859679,0,2,0
1582028746583,2860272,0,2,0
1582028746684,2859365,0,2,0
1582028746784,2859223,0,2,0
1582028746883,2859057,0,2,0
1582028746983,2858535,0,2,0
1582028747083,2858558,0,2,0
1582028747183,2858444,0,2,0
1582028747284,2857496,0,2,0
1582028747384,2856328,0,2,0
1582028747483,2855713,0,2,0
1582028747584,2855105,0,2,0
1582028747684,2854437,0,2,0
1582028747784,2854395,0,2,0
1582028747884,2854256,0,2,0
1582028747984,2852940,0,2,0
1582028748084,2852122,0,2,0
1582028748185,2851457,0,2,0
1582028748284,2850467,0,2,0
1582028748384,2850184,0,2,0
1582028748484,2850174,0,2,0
1582028748584,2849629,0,2,0
1582028748684,2848139,0,2,0
1582028748785,2847727,0,2,0
1582028748884,2847610,0,2,0
1582028748985,2847521,0,2,0
1582028749085,2847896,0,2,0
1582028749185,2848568,0,2,0
1582028749285,2848410,0,2,0
1582028749385,2847225,0,2,0
1582028749484,2847103,0,2,0
1582028749585,2846952,0,2,0
1582028749685,2846774,0,2,0
1582028749785,2847446,0,2,0
1582028749885,2847969,0,2,0
1582028749985,2846322,0,2,0
1582028750085,2844195,0,2,0
1582028750188,2842108,0,2,0
1582028750286,2840010,0,2,0
1582028750389,2840218,0,2,0
1582028750485,2841650,0,2,0
1582028750586,2840646,0,2,0
1582028750686,2839415,0,2,0
1582028750786,2838452,0,2,0
1582028750886,2838784,0,2,0
1582028750988,2839627,0,2,0
1582028751086,2838328,0,2,0
1582028751186,2836115,0,2,0
1582028751286,2835293,0,2,0
1582028751389,2834551,0,2,0
1582028751487,2834184,0,2,0
1582028751586,2834199,0,2,0
1582028751688,2832884,0,2,0
1582028751787,2831815,0,2,0
1582028751887,2831845,0,2,0
1582028751987,2832031,0,2,0
1582028752116,2832780,0,2,0
1582028752188,2832993,0,2,0
1582028752287,2830445,0,2,0
1582028752387,2826351,0,2,0
1582028752487,2829504,0,2,0
1582028752586,2832771,0,2,0
1582028752687,2833167,0,2,0
1582028752786,2832347,0,2,0
1582028752886,2831333,0,2,0
1582028752987,2830121,0,2,0
1582028753087,2827845,0,2,0
1582028753187,2826441,0,2,0
1582028753289,2825746,0,2,0
1582028753388,2825188,0,2,0
1582028753488,2824983,0,2,0
1582028753587,2825347,0,2,0
1582028753689,2825100,0,2,0
1582028753787,2824150,0,2,0
1582028753890,2823934,0,2,0
1582028753987,2823717,0,2,0
1582028754089,2823757,0,2,0
1582028754190,2824297,0,2,0
1582028754290,2825272,0,2,0
1582028754390,2825887,0,2,0
1582028754489,2825701,0,2,0
1582028754590,2826098,0,2,0
1582028754691,2826900,0,2,0
1582028754791,2827561,0,2,0
1582028754890,2828448,0,2,0
1582028754991,2828977,0,2,0
1582028755089,2829948,0,2,0
1582028755189,2831136,0,2,0
1582028755289,2833043,0,2,0
1582028755389,2835347,0,2,0
1582028755488,2836977,0,2,0
1582028755589,2838531,0,2,0
1582028755690,2840108,0,2,0
1582028755789,2840628,0,2,0
1582028755889,2841185,0,2,0
1582028755989,2842004,0,2,0
1582028756092,2842763,0,2,0
1582028756190,2843865,0,2,0
1582028756290,2845005,0,2,0
1582028756390,2845876,0,2,0
1582028756489,2846315,0,2,0
1582028756590,2847152,0,2,0
1582028756690,2848090,0,2,0
1582028756790,2848847,0,2,0
1582028756892,2849843,0,2,0
1582028756992,2851214,0,2,0
1582028757090,2852128,0,2,0
1582028757190,2852062,0,2,0
1582028757290,2852084,0,2,0
1582028757390,2853154,0,2,0
1582028757490,2854267,0,2,0
1582028757591,2855366,0,2,0
1582028757690,2855942,0,2,0
1582028757791,2855938,0,2,0
1582028757891,2855323,0,2,0
1582028757991,2854723,0,2,0
1582028758091,2854323,0,2,0
1582028758191,2854121,0,2,0
1582028758291,2854205,0,2,0
1582028758391,2853845,0,2,0
1582028758490,2853973,0,2,0
1582028758591,2854533,0,2,0
1582028758692,2855173,0,2,0
1582028758792,2855851,0,2,0
1582028758891,2856432,0,2,0
1582028758993,2856616,0,2,0
1582028759093,2856828,0,2,0
1582028759193,2857644,0,2,0
1582028759293,2858217,0,2,0
1582028759393,2858871,0,2,0
1582028759492,2859319,0,2,0
1582028759593,2859210,0,2,0
1582028759692,2859509,0,2,0
1582028759792,2859990,0,2,0
1582028759892,2860545,0,2,0
1582028759992,2861008,0,2,0
1582028760092,2861672,0,2,0
1582028760193,2861773,0,2,0
1582028760292,2861478,0,2,0
1582028760392,2861591,0,2,0
1582028760492,2861643,0,2,0
1582028760637,2861819,0,2,0
1582028760693,2862023,0,2,0
1582028760792,2862481,0,2,0
1582028760895,2862682,0,2,0
1582028760993,2862411,0,2,0
1582028761093,2862780,0,2,0
1582028761193,2862990,0,2,0
1582028761293,2863293,0,2,0
1582028761393,2863675,0,2,0
1582028761492,2864094,0,2,0
1582028761593,2864614,0,2,0
1582028761694,2864543,0,2,0
1582028761793,2864355,0,2,0
1582028761893,2864514,0,2,0
1582028761994,2864658,0,2,0
1582028762093,2864877,0,2,0
1582028762194,2865194,0,2,0
1582028762294,2865635,0,2,0
1582028762394,2865608,0,2,0
1582028762493,2865320,0,2,0
1582028762594,2865531,0,2,0
1582028762694,2865711,0,2,0
1582028762794,2865936,0,2,0
1582028762894,2866409,0,2,0
1582028762994,2866770,0,2,0
1582028763094,2866794,0,2,0
1582028763194,2866921,0,2,0
1582028763294,2867051,0,2,0
1582028763394,2867269,0,2,0
1582028763494,2867623,0,2,0
1582028763595,2867859,0,2,0
1582028763694,2867380,0,2,0
1582028763795,2867482,0,2,0
1582028763895,2867381,0,2,0
1582028763995,2867566,0,2,0
1582028764095,2867813,0,2,0
1582028764195,2867804,0,2,0
1582028764295,2867235,0,2,0
1582028764395,2866862,0,2,0
1582028764494,2866570,0,2,0
1582028764595,2866344,0,2,0
1582028764696,2866476,0,2,0
1582028764796,2866191,0,2,0
1582028764895,2865338,0,2,0
1582028764995,2864666,0,2,0
1582028765095,2864185,0,2,0
1582028765195,2863759,0,2,0
1582028765296,2863699,0,2,0
1582028765398,2863584,0,2,0
1582028765495,2862684,0,2,0
1582028765597,2861469,0,2,0
1582028765696,2860691,0,2,0
1582028765796,2859970,0,2,0
1582028765896,2859567,0,2,0
1582028765996,2859551,0,2,0
1582028766096,2858605,0,2,0
1582028766199,2857046,0,2,0
1582028766296,2856017,0,2,0
1582028766396,2855320,0,2,0
1582028766496,2854617,0,2,0
1582028766597,2854376,0,2,0
1582028766698,2853761,0,2,0
1582028766797,2852257,0,2,0
1582028766897,2851191,0,2,0
1582028766997,2850536,0,2,0
1582028767097,2850091,0,2,0
1582028767197,2850112,0,2,0
1582028767297,2850107,0,2,0
1582028767400,2850021,0,2,0
1582028767496,2848679,0,2,0
1582028767597,2847493,0,2,0
1582028767698,2847063,0,2,0
1582028767798,2846661,0,2,0
1582028767897,2846774,0,2,0
1582028767998,2847210,0,2,0
1582028768097,2847281,0,2,0
1582028768198,2845161,0,2,0
1582028768298,2841695,0,2,0
1582028768398,2838794,0,2,0
1582028768497,2837233,0,2,0
1582028768598,2834771,0,2,0
1582028768698,2833525,0,2,0
1582028768798,2837509,0,2,0
1582028768898,2842605,0,2,0
1582028768998,2846355,0,2,0
1582028769098,2845836,0,2,0
1582028769198,2843828,0,2,0
1582028769298,2840941,0,2,0
1582028769398,2832066,0,2,0
1582028769498,2829197,0,2,0
1582028769598,2834560,0,2,0
1582028769698,2837159,0,2,0
1582028769799,2841939,0,2,0
1582028769899,2847149,0,2,0
1582028769999,2849135,0,2,0
1582028770099,2848708,0,2,0
1582028770199,2893211,0,2,0
1582028770299,2893308,0,2,0
1582028770399,2868644,0,2,0
1582028770498,2863890,0,2,0
1582028770599,2855703,0,2,0
1582028770699,2856139,0,2,0
1582028770799,2857371,0,2,0
1582028770899,2853997,0,2,0
1582028770999,2850147,0,2,0
1582028771099,2848730,0,2,0
1582028771200,2848049,0,2,0
1582028771300,2848433,0,2,0
1582028771400,2848087,0,2,0
1582028771499,2848586,0,2,0
1582028771600,2849546,0,2,0
1582028771700,2850016,0,2,0
1582028771801,2850530,0,2,0
1582028771900,2851770,0,2,0
1582028772000,2853023,0,2,0
1582028772100,2854222,0,2,0
1582028772201,2855268,0,2,0
1582028772300,2856079,0,2,0
1582028772400,2857044,0,2,0
1582028772500,2858350,0,2,0
1582028772600,2859675,0,2,0
1582028772700,2861183,0,2,0
1582028772801,2862256,0,2,0
1582028772900,2862843,0,2,0
1582028773000,2864125,0,2,0
1582028773101,2865435,0,2,0
1582028773201,2866736,0,2,0
1582028773301,2867894,0,2,0
1582028773401,2868757,0,2,0
1582028773500,2870094,0,2,0
1582028773601,2871571,0,2,0
1582028773701,2873099,0,2,0
1582028773802,2874549,0,2,0
1582028773902,2875832,0,2,0
1582028774002,2876676,0,2,0
1582028774101,2877438,0,2,0
1582028774202,2878705,0,2,0
1582028774363,2879996,0,2,0
1582028774402,2881499,0,2,0
1582028774503,2882864,0,2,0
1582028774602,2883820,0,2,0
1582028774702,2884553,0,2,0
1582028774802,2885573,0,2,0
1582028774902,2886568,0,2,0
1582028775002,2887677,0,2,0
1582028775102,2888443,0,2,0
1582028775202,2889237,0,2,0
1582028775302,2889914,0,2,0
1582028775402,2890960,0,2,0
1582028775502,2891932,0,2,0
1582028775603,2893101,0,2,0
1582028775702,2894295,0,2,0
1582028775803,2894875,0,2,0
1582028775903,2895656,0,2,0
1582028776003,2896747,0,2,0
1582028776103,2897643,0,2,0
1582028776203,2898507,0,2,0
1582028776303,2899089,0,2,0
1582028776403,2899529,0,2,0
1582028776502,2900173,0,2,0
1582028776603,2900838,0,2,0
1582028776703,2901603,0,2,0
1582028776802,2902602,0,2,0
1582028776902,2902819,0,2,0
1582028777004,2903121,0,2,0
1582028777104,2903595,0,2,0
1582028777204,2904215,0,2,0
1582028777303,2904960,0,2,0
1582028777403,2905586,0,2,0
1582028777502,2906525,0,2,0
1582028777603,2906905,0,2,0
1582028777703,2907112,0,2,0
1582028777804,2907426,0,2,0
1582028777905,2907658,0,2,0
1582028778006,2907920,0,2,0
1582028778106,2908489,0,2,0
1582028778211,2909070,0,2,0
1582028778304,2909606,0,2,0
1582028778404,2909918,0,2,0
1582028778504,2910081,0,2,0
1582028778605,2910247,0,2,0
1582028778705,2910567,0,2,0
1582028778805,2911003,0,2,0
1582028778905,2911593,0,2,0
1582028779005,2912322,0,2,0
1582028779105,2912846,0,2,0
1582028779205,2913151,0,2,0
1582028779305,2913278,0,2,0
1582028779405,2913518,0,2,0
1582028779504,2913881,0,2,0
1582028779605,2914276,0,2,0
1582028779705,2914721,0,2,0
1582028779805,2915376,0,2,0
1582028779905,2915789,0,2,0
1582028780006,2915863,0,2,0
1582028780105,2916067,0,2,0
1582028780207,2916512,0,2,0
1582028780306,2916913,0,2,0
1582028780406,2917330,0,2,0
1582028780505,2917695,0,2,0
1582028780606,2917410,0,2,0
1582028780706,2917412,0,2,0
1582028780806,2917486,0,2,0
1582028780906,2917604,0,2,0
1582028781006,2917838,0,2,0
1582028781106,2918126,0,2,0
1582028781207,2917902,0,2,0
1582028781308,2917422,0,2,0
1582028781407,2917458,0,2,0
1582028781506,2917308,0,2,0
1582028781606,2917306,0,2,0
1582028781708,2917356,0,2,0
1582028781808,2917390,0,2,0
1582028781907,2916812,0,2,0
1582028782007,2916122,0,2,0
1582028782107,2915912,0,2,0
1582028782209,2915754,0,2,0
1582028782307,2915388,0,2,0
1582028782407,2915611,0,2,0
1582028782506,2915408,0,2,0
1582028782607,2914612,0,2,0
1582028782708,2914077,0,2,0
1582028782808,2913947,0,2,0
1582028782907,2913823,0,2,0
1582028783008,2913748,0,2,0
1582028783107,2913885,0,2,0
1582028783208,2913455,0,2,0
1582028783308,2912695,0,2,0
1582028783408,2912461,0,2,0
1582028783507,2912112,0,2,0
1582028783608,2911913,0,2,0
1582028783708,2911841,0,2,0
1582028783808,2911388,0,2,0
1582028783909,2910503,0,2,0
1582028784008,2909990,0,2,0
1582028784108,2909474,0,2,0
1582028784209,2909140,0,2,0
1582028784308,2909064,0,2,0
1582028784408,2908677,0,2,0
1582028784508,2907409,0,2,0
1582028784608,2906455,0,2,0
1582028784708,2905802,0,2,0
1582028784809,2905133,0,2,0
1582028784909,2904738,0,2,0
1582028785009,2904547,0,2,0
1582028785109,2903795,0,2,0
1582028785209,2902507,0,2,0
1582028785309,2901687,0,2,0
1582028785409,2901155,0,2,0
1582028785508,2900745,0,2,0
1582028785609,2900866,0,2,0
1582028785709,2900786,0,2,0
1582028785809,2900869,0,2,0
1582028785909,2900050,0,2,0
1582028786010,2899494,0,2,0
1582028786109,2899362,0,2,0
1582028786210,2899188,0,2,0
1582028786310,2899303,0,2,0
1582028786410,2899461,0,2,0
1582028786509,2899537,0,2,0
1582028786610,2898764,0,2,0
1582028786710,2898215,0,2,0
1582028786810,2898247,0,2,0
1582028786910,2898247,0,2,0
1582028787010,2898280,0,2,0
1582028787110,2898445,0,2,0
1582028787210,2898907,0,2,0
1582028787310,2898468,0,2,0
1582028787410,2897964,0,2,0
1582028787510,2898064,0,2,0
1582028787611,2898234,0,2,0
1582028787711,2898647,0,2,0
1582028787811,2898955,0,2,0
1582028787911,2899503,0,2,0
1582028788011,2899091,0,2,0
1582028788111,2898751,0,2,0
1582028788211,2899134,0,2,0
1582028788311,2899304,0,2,0
1582028788411,2899705,0,2,0
1582028788510,2900036,0,2,0
1582028788611,2900191,0,2,0
1582028788712,2899347,0,2,0
1582028788811,2899144,0,2,0
1582028788911,2899064,0,2,0
1582028789012,2899033,0,2,0
1582028789111,2899319,0,2,0
1582028789211,2899603,0,2,0
1582028789312,2899224,0,2,0
1582028789413,2898745,0,2,0
1582028789511,2898905,0,2,0
1582028789612,2898999,0,2,0
1582028789712,2899292,0,2,0
1582028789812,2899628,0,2,0
1582028789912,2899263,0,2,0
1582028790012,2898728,0,2,0
1582028790112,2898591,0,2,0
1582028790213,2898579,0,2,0
1582028790312,2898866,0,2,0
1582028790412,2899282,0,2,0
1582028790512,2899447,0,2,0
1582028790612,2898447,0,2,0
1582028790713,2898159,0,2,0
1582028790813,2898074,0,2,0
1582028790914,2898103,0,2,0
1582028791014,2898513,0,2,0
1582028791114,2898519,0,2,0
1582028791214,2897888,0,2,0
1582028791314,2897088,0,2,0
1582028791414,2897015,0,2,0
1582028791513,2896921,0,2,0
1582028791613,2896763,0,2,0
1582028791714,2896970,0,2,0
1582028791813,2897413,0,2,0
1582028791913,2897618,0,2,0
1582028792014,2896773,0,2,0
1582028792113,2896405,0,2,0
1582028792214,2896355,0,2,0
1582028792315,2896442,0,2,0
1582028792414,2896525,0,2,0
1582028792513,2896836,0,2,0
1582028792614,2897110,0,2,0
1582028792714,2896241,0,2,0
1582028792814,2895876,0,2,0
1582028792914,2895848,0,2,0
1582028793014,2895804,0,2,0
1582028793114,2896096,0,2,0
1582028793215,2896465,0,2,0
1582028793314,2896837,0,2,0
1582028793415,2896817,0,2,0
1582028793514,2896017,0,2,0
1582028793615,2895549,0,2,0
1582028793714,2895607,0,2,0
1582028793815,2895982,0,2,0
1582028793915,2896473,0,2,0
1582028794015,2897129,0,2,0
1582028794115,2897510,0,2,0
1582028794215,2896840,0,2,0
1582028794315,2896234,0,2,0
1582028794415,2896242,0,2,0
1582028794514,2896278,0,2,0
1582028794615,2896154,0,2,0
1582028794716,2896588,0,2,0
1582028794815,2896959,0,2,0
1582028794915,2896903,0,2,0
1582028795016,2896176,0,2,0
1582028795115,2895846,0,2,0
1582028795215,2896088,0,2,0
1582028795316,2896118,0,2,0
1582028795420,2896359,0,2,0
1582028795515,2896955,0,2,0
1582028795616,2897297,0,2,0
1582028795716,2896700,0,2,0
1582028795816,2896509,0,2,0
1582028795916,2896625,0,2,0
1582028796018,2896755,0,2,0
1582028796116,2896922,0,2,0
1582028796218,2897321,0,2,0
1582028796316,2896955,0,2,0
1582028796416,2896664,0,2,0
1582028796516,2896565,0,2,0
1582028796616,2896883,0,2,0
1582028796717,2897145,0,2,0
1582028796817,2897517,0,2,0
1582028796917,2896537,0,2,0
1582028797017,2895553,0,2,0
1582028797117,2894808,0,2,0
1582028797217,2894546,0,2,0
1582028797317,2894669,0,2,0
1582028797419,2894912,0,2,0
1582028797516,2894260,0,2,0
1582028797617,2892964,0,2,0
1582028797717,2892205,0,2,0
1582028797817,2891905,0,2,0
1582028797917,2891681,0,2,0
1582028798018,2891556,0,2,0
1582028798117,2891521,0,2,0
1582028798218,2891897,0,2,0
1582028798318,2890410,0,2,0
1582028798418,2889583,0,2,0
1582028798517,2889293,0,2,0
1582028798618,2889223,0,2,0
1582028798718,2889272,0,2,0
1582028798818,2889510,0,2,0
1582028798918,2889958,0,2,0
1582028799018,2889751,0,2,0
1582028799118,2889313,0,2,0
1582028799218,2889472,0,2,0
1582028799318,2889714,0,2,0
1582028799418,2889724,0,2,0
1582028799518,2890100,0,2,0
1582028799618,2890499,0,2,0
1582028799718,2889874,0,2,0
1582028799819,2889269,0,2,0
1582028799918,2889209,0,2,0
1582028800019,2889321,0,2,0
1582028800119,2889365,0,2,0
1582028800219,2889866,0,2,0
1582028800319,2890094,0,2,0
1582028800420,2889348,0,2,0
1582028800518,2888563,0,2,0
1582028800619,2888327,0,2,0
1582028800720,2888291,0,2,0
1582028800819,2888587,0,2,0
1582028800919,2888838,0,2,0
1582028801020,2889642,0,2,0
1582028801120,2889786,0,2,0
1582028801220,2888788,0,2,0
1582028801320,2888390,0,2,0
1582028801420,2888212,0,2,0
1582028801519,2888351,0,2,0
1582028801620,2888820,0,2,0
1582028801720,2889433,0,2,0
1582028801820,2889989,0,2,0
1582028801920,2890594,0,2,0
1582028802020,2890217,0,2,0
1582028802120,2889618,0,2,0
1582028802221,2889701,0,2,0
1582028802320,2889974,0,2,0
1582028802420,2890214,0,2,0
1582028802520,2890741,0,2,0
1582028802621,2891482,0,2,0
1582028802720,2892211,0,2,0
1582028802821,2892164,0,2,0
1582028802921,2891603,0,2,0
1582028803021,2891720,0,2,0
1582028803121,2892162,0,2,0
1582028803221,2892534,0,2,0
1582028803321,2892985,0,2,0
1582028803421,2893721,0,2,0
1582028803520,2893553,0,2,0
1582028803621,2893152,0,2,0
1582028803721,2893072,0,2,0
1582028803821,2893420,0,2,0
1582028803921,2893375,0,2,0
1582028804022,2893454,0,2,0
1582028804121,2894053,0,2,0
1582028804222,2893469,0,2,0
1582028804322,2893228,0,2,0
1582028804422,2893458,0,2,0
1582028804521,2893378,0,2,0
1582028804622,2893729,0,2,0
1582028804722,2894212,0,2,0
1582028804822,2893732,0,2,0
1582028804922,2892831,0,2,0
1582028805022,2892473,0,2,0
1582028805122,2892384,0,2,0
1582028805222,2892469,0,2,0
1582028805322,2892599,0,2,0
1582028805422,2892939,0,2,0
1582028805522,2893115,0,2,0
1582028805622,2891988,0,2,0
1582028805722,2890895,0,2,0
1582028805823,2890643,0,2,0
1582028805922,2890287,0,2,0
1582028806022,2890262,0,2,0
1582028806123,2890398,0,2,0
1582028806223,2890860,0,2,0
1582028806323,2891395,0,2,0
1582028806423,2891006,0,2,0
1582028806522,2890504,0,2,0
1582028806623,2890541,0,2,0
1582028806724,2890509,0,2,0
1582028806823,2890519,0,2,0
1582028806923,2890918,0,2,0
1582028807024,2891227,0,2,0
1582028807123,2891427,0,2,0
1582028807223,2890603,0,2,0
1582028807324,2890538,0,2,0
1582028807424,2890518,0,2,0
1582028807523,2890082,0,2,0
1582028807624,2890191,0,2,0
1582028807724,2891649,0,2,0
1582028807824,2892650,0,2,0
1582028807924,2889794,0,2,0
1582028808024,2888614,4,2,n
1582028808124,2891018,4,2,n
1582028808225,2895296,4,2,n
1582028808324,2899115,4,2,n
1582028808424,2902514,4,2,n
1582028808524,2905908,4,2,n
1582028808624,2908979,4,2,n
1582028808724,2910518,4,2,n
1582028808825,2911645,4,2,n
1582028808924,2913411,4,2,n
1582028809025,2915261,0,2,0
1582028809125,2917054,0,2,0
1582028809225,2918928,0,2,0
1582028809325,2921093,0,2,0
1582028809425,2922951,0,2,0
1582028809524,2925129,0,2,0
1582028809625,2926746,0,2,0
1582028809725,2927426,0,2,0
1582028809825,2924705,0,2,0
1582028809925,2922901,0,2,0
1582028810026,2923191,0,2,0
1582028810125,2923967,0,2,0
1582028810228,2924915,0,2,0
1582028810326,2925797,0,2,0
1582028810427,2925476,0,2,0
1582028810525,2925039,0,2,0
1582028810626,2925080,0,2,0
1582028810726,2925576,0,2,0
1582028810826,2926111,0,2,0
1582028810926,2926661,0,2,0
1582028811026,2927441,0,2,0
1582028811126,2927850,0,2,0
1582028811226,2927616,0,2,0
1582028811326,2927964,0,2,0
1582028811429,2928503,0,2,0
1582028811526,2929130,0,2,0
1582028811626,2929774,0,2,0
1582028811729,2930406,0,2,0
1582028811827,2930552,0,2,0
1582028811927,2930458,0,2,0
1582028812027,2931109,0,2,0
1582028812128,2931538,0,2,0
1582028812229,2932168,0,2,0
1582028812327,2932736,0,2,0
1582028812427,2932724,0,2,0
1582028812526,2932381,0,2,0
1582028812632,2932814,0,2,0
1582028812728,2933052,0,2,0
1582028812828,2933279,0,2,0
1582028812928,2933526,0,2,0
1582028813028,2932803,0,2,0
1582028813127,2932278,0,2,0
1582028813228,2932043,0,2,0
1582028813328,2931906,0,2,0
1582028813428,2932136,0,2,0
1582028813527,2932091,0,2,0
1582028813628,2930924,0,2,0
1582028813728,2930043,0,2,0
1582028813828,2929854,0,2,0
1582028813929,2929446,0,2,0
1582028814028,2929472,0,2,0
1582028814128,2929915,0,2,0
1582028814229,2930375,0,2,0
1582028814328,2930780,0,2,0
1582028814428,2930678,0,2,0
1582028814528,2929354,0,2,0
1582028814628,2928420,0,2,0
1582028814728,2927875,0,2,0
1582028814829,2927444,0,2,0
1582028814929,2927348,0,2,0
1582028815029,2927349,0,2,0
1582028815129,2927708,0,2,0
1582028815229,2927792,0,2,0
1582028815329,2926375,0,2,0
1582028815429,2924815,0,2,0
1582028815528,2924232,0,2,0
1582028815629,2923626,0,2,0
1582028815729,2923153,0,2,0
1582028815829,2923484,0,2,0
1582028815929,2923756,0,2,0
1582028816030,2924224,0,2,0
1582028816130,2924479,0,2,0
1582028816230,2923084,0,2,0
1582028816330,2921942,0,2,0
1582028816430,2921523,0,2,0
1582028816529,2921101,0,2,0
1582028816630,2920992,0,2,0
1582028816730,2921250,0,2,0
1582028816830,2921572,0,2,0
1582028816930,2921859,0,2,0
1582028817030,2920671,0,2,0
1582028817130,2919662,0,2,0
1582028817230,2919518,0,2,0
1582028817330,2919460,0,2,0
1582028817430,2919532,0,2,0
1582028817530,2919953,0,2,0
1582028817631,2920506,0,2,0
1582028817730,2920559,0,2,0
1582028817831,2919339,0,2,0
1582028817931,2918765,0,2,0
1582028818031,2918693,0,2,0
1582028818131,2918471,0,2,0
1582028818231,2918812,0,2,0
1582028818331,2919454,0,2,0
1582028818431,2920137,0,2,0
1582028818531,2920567,0,2,0
1582028818631,2919844,0,2,0
1582028818732,2919210,0,2,0
1582028818831,2919378,0,2,0
1582028818931,2919306,0,2,0
1582028819032,2919628,0,2,0
1582028819131,2920060,0,2,0
1582028819231,2920706,0,2,0
1582028819332,2921474,0,2,0
1582028819432,2921025,0,2,0
1582028819531,2920084,0,2,0
1582028819633,2920018,0,2,0
1582028819732,2920134,0,2,0
1582028819832,2920319,0,2,0
1582028819932,2920737,0,2,0
1582028820032,2921317,0,2,0
