timestamp,ppg,label,stage,hand
1582727838028,3159751,0.0,0,0
1582727838128,3159575,0.0,0,0
1582727838227,3159709,0.0,0,0
1582727838327,3159764,0.0,0,0
1582727838428,3159618,0.0,0,0
1582727838527,3159625,0.0,0,0
1582727838627,3159707,0.0,0,0
1582727838727,3159742,0.0,0,0
1582727838827,3159485,0.0,0,0
1582727838927,3153336,0.0,0,0
1582727839029,3157865,0.0,0,0
1582727839127,3157562,0.0,0,0
1582727839227,3156206,0.0,0,0
1582727839328,3155872,0.0,0,0
1582727839428,3156348,0.0,0,0
1582727839527,3156448,0.0,0,0
1582727839628,3156675,0.0,0,0
1582727839728,3156564,0.0,0,0
1582727839828,3156460,0.0,0,0
1582727839928,3156660,0.0,0,0
1582727840028,3156634,0.0,0,0
1582727840128,3156686,0.0,0,0
1582727840228,3156733,0.0,0,0
1582727840329,3156507,0.0,0,0
1582727840428,3156564,0.0,0,0
1582727840528,3156587,0.0,0,0
1582727840628,3156614,0.0,0,0
1582727840728,3156577,0.0,0,0
1582727840829,3156482,0.0,0,0
1582727840928,3156740,0.0,0,0
1582727841029,3156562,0.0,0,0
1582727841129,3156684,0.0,0,0
1582727841228,3156757,0.0,0,0
1582727841329,3156637,0.0,0,0
1582727841429,3156635,0.0,0,0
1582727841529,3156449,0.0,0,0
1582727841628,3156468,0.0,0,0
1582727841729,3156577,0.0,0,0
1582727841829,3156642,0.0,0,0
1582727841929,3156436,0.0,0,0
1582727842030,3156560,0.0,0,0
1582727842129,3156292,0.0,0,0
1582727842246,3156546,0.0,0,0
1582727842331,3156608,0.0,0,0
1582727842429,3156684,0.0,0,0
1582727842529,3156546,0.0,0,0
1582727842630,3156415,0.0,0,0
1582727842729,3156584,0.0,0,0
1582727842830,3156579,0.0,0,0
1582727842930,3156521,0.0,0,0
1582727843030,3156489,0.0,0,0
1582727843130,3156505,0.0,0,0
1582727843233,3156507,0.0,0,0
1582727843330,3156406,0.0,0,0
1582727843430,3156433,0.0,0,0
1582727843530,3156511,0.0,0,0
1582727843630,3156411,0.0,0,0
1582727843730,3156644,0.0,0,0
1582727843831,3156608,0.0,0,0
1582727843930,3156513,0.0,0,0
1582727844030,3156561,0.0,0,0
1582727844131,3156539,0.0,0,0
1582727844230,3156591,0.0,0,0
1582727844331,3156533,0.0,0,0
1582727844431,3156402,0.0,0,0
1582727844532,3156361,0.0,0,0
1582727844631,3156464,0.0,0,0
1582727844731,3156450,0.0,0,0
1582727844831,3156305,0.0,0,0
1582727844931,3156330,0.0,0,0
1582727845028,3156496,0.0,0,0
1582727845127,3156303,0.0,0,0
1582727845227,3156419,0.0,0,0
1582727845328,3156507,0.0,0,0
1582727845428,3156331,0.0,0,0
1582727845527,3156471,0.0,0,0
1582727845628,3156539,0.0,0,0
1582727845728,3156439,0.0,0,0
1582727845829,3156538,0.0,0,0
1582727845928,3156289,0.0,0,0
1582727846028,3156182,0.0,0,0
1582727846128,3156307,0.0,0,0
1582727846229,3156323,0.0,0,0
1582727846328,3156236,0.0,0,0
1582727846428,3156320,0.0,0,0
1582727846528,3156247,0.0,0,0
1582727846628,3156538,0.0,0,0
1582727846729,3156402,0.0,0,0
1582727846829,3156334,0.0,0,0
1582727846931,3156354,0.0,0,0
1582727847030,3156393,0.0,0,0
1582727847131,3156478,0.0,0,0
1582727847230,3156361,0.0,0,0
1582727847328,3156383,0.0,0,0
1582727847429,3156503,0.0,0,0
1582727847529,3156371,0.0,0,0
1582727847630,3168402,0.0,0,0
1582727847731,2923509,0.0,0,0
1582727847830,1789802,0.0,0,0
1582727847928,1660646,0.0,0,0
1582727848029,1648142,0.0,0,0
1582727848128,1724164,0.0,0,0
1582727848228,1847103,0.0,0,0
1582727848329,2321591,0.0,0,0
1582727848479,2709846,0.0,0,0
1582727848540,2708185,0.0,0,0
1582727848684,2386609,0.0,0,0
1582727848739,1869720,0.0,0,0
1582727848829,2203346,0.0,0,0
1582727848928,1663001,0.0,0,0
1582727849029,1805924,0.0,0,0
1582727849129,1795932,0.0,0,0
1582727849233,1759861,0.0,0,0
1582727849329,1853985,0.0,0,0
1582727849429,1786226,0.0,0,0
1582727849530,1876370,0.0,0,0
1582727849629,2221416,0.0,0,0
1582727849729,2224390,0.0,0,0
1582727849832,2391986,0.0,0,0
1582727849931,2489760,0.0,0,0
1582727850031,2435030,0.0,0,0
1582727850132,2418784,0.0,0,0
1582727850233,2283296,0.0,0,0
1582727850331,2333801,0.0,0,0
1582727850431,2391462,0.0,0,0
1582727850531,2423361,0.0,0,0
1582727850631,2493744,0.0,0,0
1582727850731,2547814,0.0,0,0
1582727850831,2632192,0.0,0,0
1582727850931,2608630,0.0,0,0
1582727851031,1995740,0.0,0,0
1582727851132,1650899,0.0,0,0
1582727851231,1643135,0.0,0,0
1582727851332,1642201,0.0,0,0
1582727851431,1643308,0.0,0,0
1582727851531,1752294,0.0,0,0
1582727851632,2184782,0.0,0,0
1582727851732,1670100,0.0,0,0
1582727851831,1644093,0.0,0,0
1582727851932,1643441,0.0,0,0
1582727852032,1648299,0.0,0,0
1582727852132,1649824,0.0,0,0
1582727852246,1645860,0.0,0,0
1582727852332,1648521,0.0,0,0
1582727852432,1909838,0.0,0,0
1582727852532,2206010,0.0,0,0
1582727852635,2148717,0.0,0,0
1582727852735,2008749,0.0,0,0
1582727852836,2053410,0.0,0,0
1582727852935,2388183,0.0,0,0
1582727853035,2395126,0.0,0,0
1582727853136,2733789,0.0,0,0
1582727853236,2509759,0.0,0,0
1582727853357,2805983,0.0,0,0
1582727853436,2534630,0.0,0,0
1582727853536,2420068,0.0,0,0
1582727853636,1852686,0.0,0,0
1582727853734,1674343,0.0,0,0
1582727853833,1667954,0.0,0,0
1582727853933,1665847,0.0,0,0
1582727854033,1687266,0.0,0,0
1582727854133,1710273,0.0,0,0
1582727854233,1741331,0.0,0,0
1582727854334,1842448,0.0,0,0
1582727854433,2008844,0.0,0,0
1582727854533,2145574,0.0,0,0
1582727854639,2097140,0.0,0,0
1582727854738,2220699,0.0,0,0
1582727854837,2450705,0.0,0,0
1582727854937,2266042,0.0,0,0
1582727855038,2301160,0.0,0,0
1582727855137,2493626,0.0,0,0
1582727855237,2169484,0.0,0,0
1582727855339,2193384,0.0,0,0
1582727855438,2326911,0.0,0,0
1582727855537,2560680,0.0,0,0
1582727855637,2805509,0.0,0,0
1582727855737,2477120,0.0,0,0
1582727855838,2184810,0.0,0,0
1582727855937,1866018,0.0,0,0
1582727856040,2276129,0.0,0,0
1582727856138,2297637,0.0,0,0
1582727856238,2104929,0.0,0,0
1582727856338,1995554,0.0,0,0
1582727856438,2055357,0.0,0,0
1582727856538,2049089,0.0,0,0
1582727856642,2154689,0.0,0,0
1582727856743,2314438,0.0,0,0
1582727856842,2251584,0.0,0,0
1582727856942,1912875,0.0,0,0
1582727857040,1704392,0.0,0,0
1582727857135,1685914,0.0,0,0
1582727857235,1665796,0.0,0,0
1582727857337,1658080,0.0,0,0
1582727857437,1655658,0.0,0,0
1582727857535,1658638,0.0,0,0
1582727857636,1666540,0.0,0,0
1582727857736,1706349,0.0,0,0
1582727857835,1747891,0.0,0,0
1582727857936,1803618,0.0,0,0
1582727858038,1796448,0.0,0,0
1582727858137,1759678,0.0,0,0
1582727858236,1761839,0.0,0,0
1582727858336,1880559,0.0,0,0
1582727858436,1919292,0.0,0,0
1582727858536,1841326,0.0,0,0
1582727858636,1861827,0.0,0,0
1582727858736,1895220,0.0,0,0
1582727858879,2173467,0.0,0,0
1582727858939,2185878,0.0,0,0
1582727859039,2216568,0.0,0,0
1582727859140,2115785,0.0,0,0
1582727859240,2078383,0.0,0,0
1582727859346,2007134,0.0,0,0
1582727859440,1958843,0.0,0,0
1582727859540,1952046,0.0,0,0
1582727859640,2060574,0.0,0,0
1582727859740,2051668,0.0,0,0
1582727859840,2072203,0.0,0,0
1582727859940,2016217,0.0,0,0
1582727860041,2044716,0.0,0,0
1582727860140,1926611,0.0,0,0
1582727860240,2012572,0.0,0,0
1582727860341,2010147,0.0,0,0
1582727860441,1979279,0.0,0,0
1582727860540,2005229,0.0,0,0
1582727860641,2068262,0.0,0,0
1582727860741,1979964,0.0,0,0
1582727860841,1876113,0.0,0,0
1582727860945,1999638,0.0,0,0
1582727861041,1995741,0.0,0,0
1582727861140,2072561,0.0,0,0
1582727861240,1776045,0.0,0,0
1582727861339,1718491,0.0,0,0
1582727861438,1714411,0.0,0,0
1582727861538,1707290,0.0,0,0
1582727861638,1727077,0.0,0,0
1582727861738,1866714,0.0,0,0
1582727861839,1959055,0.0,0,0
1582727861941,2175029,0.0,0,0
1582727862042,2295485,0.0,0,0
1582727862142,2157551,0.0,0,0
1582727862242,1994742,0.0,0,0
1582727862342,2379944,0.0,0,0
1582727862442,1941203,0.0,0,0
1582727862540,1789689,0.0,0,0
1582727862639,2661964,0.0,0,0
1582727862743,2790477,0.0,0,0
1582727862841,2549348,0.0,0,0
1582727862941,2673909,0.0,0,0
1582727863042,2329837,0.0,0,0
1582727863141,2630476,0.0,0,0
1582727863241,2846960,0.0,0,0
1582727863342,2809186,0.0,0,0
1582727863442,2837511,0.0,0,0
1582727863541,2943891,0.0,0,0
1582727863642,2880293,0.0,0,0
1582727863742,2926573,0.0,0,0
1582727863842,2883855,0.0,0,0
1582727863942,2413162,0.0,0,0
1582727864042,2398689,0.0,0,0
1582727864142,2560232,0.0,0,0
1582727864242,2398061,0.0,0,0
1582727864342,2205258,0.0,0,0
1582727864442,2197887,0.0,0,0
1582727864542,2197746,0.0,0,0
1582727864643,2217242,0.0,0,0
1582727864745,2232099,0.0,0,0
1582727864845,2206837,0.0,0,0
1582727864945,2212062,0.0,0,0
1582727865045,2215684,0.0,0,0
1582727865146,2228864,0.0,0,0
1582727865245,2227117,0.0,0,0
1582727865345,2252085,0.0,0,0
1582727865445,2256880,0.0,0,0
1582727865545,2239445,0.0,0,0
1582727865647,2232015,0.0,0,0
1582727865750,2233718,0.0,0,0
1582727865850,2206645,0.0,0,0
1582727865947,2303284,0.0,0,0
1582727866050,2404810,0.0,0,0
1582727866149,2349671,0.0,0,0
1582727866248,2276847,0.0,0,0
1582727866349,2195967,0.0,0,0
1582727866451,2211836,0.0,0,0
1582727866549,2235881,0.0,0,0
1582727866649,2249054,0.0,0,0
1582727866749,2240086,0.0,0,0
1582727866848,2363575,0.0,0,0
1582727866949,2507751,0.0,0,0
1582727867050,2564046,0.0,0,0
1582727867149,2680805,0.0,0,0
1582727867249,2794696,0.0,0,0
1582727867349,2647846,0.0,0,0
1582727867449,2227982,0.0,0,0
1582727867549,2218268,0.0,0,0
1582727867649,2212607,0.0,0,0
1582727867749,2200185,0.0,0,0
1582727867850,2176922,0.0,0,0
1582727867949,2164845,0.0,0,0
1582727868050,2157869,0.0,0,0
1582727868150,2178500,0.0,0,0
1582727868250,2234608,0.0,0,0
1582727868349,2242306,0.0,0,0
1582727868450,2669496,0.0,0,0
1582727868550,2734609,0.0,0,0
1582727868650,2765285,0.0,0,0
1582727868751,2874535,0.0,0,0
1582727868850,2428898,0.0,0,0
1582727868949,2325284,0.0,0,0
1582727869082,2343345,0.0,0,0
1582727869150,2552813,0.0,0,0
1582727869257,2908845,0.0,0,0
1582727869355,2965441,0.0,0,0
1582727869454,2885034,0.0,0,0
1582727869554,2939005,0.0,0,0
1582727869654,2816679,0.0,0,0
1582727869753,2512924,0.0,0,0
1582727869852,2461237,0.0,0,0
1582727869952,2360397,0.0,0,0
1582727870052,2348261,0.0,0,0
1582727870152,2424868,0.0,0,0
1582727870251,2962737,0.0,0,0
1582727870351,3042527,0.0,0,0
1582727870451,2868463,0.0,0,0
1582727870551,2529914,0.0,0,0
1582727870651,2428898,0.0,0,0
1582727870752,2384245,0.0,0,0
1582727870852,2479360,0.0,0,0
1582727870951,2346132,0.0,0,0
1582727871052,2401990,0.0,0,0
1582727871152,2568906,0.0,0,0
1582727871252,2554955,0.0,0,0
1582727871352,2498973,0.0,0,0
1582727871452,2497930,0.0,0,0
1582727871552,2793541,0.0,0,0
1582727871652,2857912,0.0,0,0
1582727871752,2884770,0.0,0,0
1582727871852,2895522,0.0,0,0
1582727871952,2552297,0.0,0,0
1582727872054,2307899,0.0,0,0
1582727872153,2307019,0.0,0,0
1582727872252,2421704,0.0,0,0
1582727872353,2804801,0.0,0,0
1582727872453,2403762,0.0,0,0
1582727872552,2810573,0.0,0,0
1582727872653,2885806,0.0,0,0
1582727872753,2876391,0.0,0,0
1582727872853,2692508,0.0,0,0
1582727872953,2459649,0.0,0,0
1582727873053,2369253,0.0,0,0
1582727873153,2284015,0.0,0,0
1582727873254,2308817,0.0,0,0
1582727873353,2328560,0.0,0,0
1582727873453,2359409,0.0,0,0
1582727873553,2397456,0.0,0,0
1582727873653,2786860,0.0,0,0
1582727873752,2659368,0.0,0,0
1582727873854,2763097,0.0,0,0
1582727873953,2882329,0.0,0,0
1582727874054,2951589,0.0,0,0
1582727874154,2979301,0.0,0,0
1582727874254,2947249,0.0,0,0
1582727874354,2991539,0.0,0,0
1582727874454,2940684,0.0,0,0
1582727874554,2646459,0.0,0,0
1582727874654,2462018,0.0,0,0
1582727874755,2674887,0.0,0,0
1582727874854,2785645,0.0,0,0
1582727874954,2466684,0.0,0,0
1582727875054,2385039,0.0,0,0
1582727875155,2328635,0.0,0,0
1582727875254,2369410,0.0,0,0
1582727875355,2408621,0.0,0,0
1582727875455,2320762,0.0,0,0
1582727875553,2217440,0.0,0,0
1582727875655,2201432,0.0,0,0
1582727875758,2243971,0.0,0,0
1582727875866,2243698,0.0,0,0
1582727875984,2177407,0.0,0,0
1582727876115,2725660,0.0,0,0
1582727876155,2805467,0.0,0,0
1582727876256,3010199,0.0,0,0
1582727876355,2221805,0.0,0,0
1582727876455,2164484,0.0,0,0
1582727876558,2164950,0.0,0,0
1582727876658,2396739,0.0,0,0
1582727876756,2524938,0.0,0,0
1582727876855,2454731,0.0,0,0
1582727876956,2170512,0.0,0,0
1582727877055,2150644,0.0,0,0
1582727877158,2145485,0.0,0,0
1582727877256,2129405,0.0,0,0
1582727877356,2107340,0.0,0,0
1582727877458,2094913,0.0,0,0
1582727877557,2083184,0.0,0,0
1582727877657,2072860,0.0,0,0
1582727877759,2067068,0.0,0,0
1582727877861,2050460,0.0,0,0
1582727877957,2020527,0.0,0,0
1582727878062,2048977,0.0,0,0
1582727878157,2074203,0.0,0,0
1582727878257,2090586,0.0,0,0
1582727878358,2102808,0.0,0,0
1582727878457,2122556,0.0,0,0
1582727878557,2135225,0.0,0,0
1582727878658,2172135,0.0,0,0
1582727878758,2173513,0.0,0,0
1582727878858,2114015,0.0,0,0
1582727878958,2088950,0.0,0,0
1582727879062,2049801,0.0,0,0
1582727879158,2030393,0.0,0,0
1582727879259,2038835,0.0,0,0
1582727879358,2032481,0.0,0,0
1582727879458,2034288,0.0,0,0
1582727879558,2077095,0.0,0,0
1582727879659,2096141,0.0,0,0
1582727879759,2115947,0.0,0,0
1582727879859,2113446,0.0,0,0
1582727879958,2131773,0.0,0,0
1582727880059,2164966,0.0,0,0
1582727880158,2212296,0.0,0,0
1582727880261,2227861,0.0,0,0
1582727880360,2237422,0.0,0,0
1582727880459,2237106,0.0,0,0
1582727880561,2232998,0.0,0,0
1582727880662,2210455,0.0,0,0
1582727880759,2182664,0.0,0,0
1582727880859,2165562,0.0,0,0
1582727880958,2219007,0.0,0,0
1582727881059,2282455,0.0,0,0
1582727881158,2343981,0.0,0,0
1582727881259,2263971,0.0,0,0
1582727881360,2268256,0.0,0,0
1582727881459,2259856,0.0,0,0
1582727881558,2245440,0.0,0,0
1582727881660,2242927,0.0,0,0
1582727881759,2243056,0.0,0,0
1582727881858,2240183,0.0,0,0
1582727881959,2232270,0.0,0,0
1582727882059,2264201,0.0,0,0
1582727882158,2294361,0.0,0,0
1582727882259,2229549,0.0,0,0
1582727882359,2223343,0.0,0,0
1582727882459,2221596,0.0,0,0
1582727882560,2399509,0.0,0,0
1582727882659,3108345,0.0,0,0
1582727882759,3118369,0.0,0,0
1582727882860,3066843,0.0,0,0
1582727882959,3089537,0.0,0,0
1582727883060,3068874,0.0,0,0
1582727883160,2969123,0.0,0,0
1582727883260,2537823,0.0,0,0
1582727883360,2885691,0.0,0,0
1582727883460,2697867,0.0,0,0
1582727883560,2757463,0.0,0,0
1582727883660,2884362,0.0,0,0
1582727883761,2887650,0.0,0,0
1582727883862,2858589,0.0,0,0
1582727883960,2951182,0.0,0,0
1582727884061,2780532,0.0,0,0
1582727884160,2810968,0.0,0,0
1582727884260,2760993,0.0,0,0
1582727884361,2447615,0.0,0,0
1582727884461,2541513,0.0,0,0
1582727884560,2560580,0.0,0,0
1582727884661,2223655,0.0,0,0
1582727884761,2205893,0.0,0,0
1582727884861,2202669,0.0,0,0
1582727884961,2186353,0.0,0,0
1582727885061,2230914,0.0,0,0
1582727885161,2249179,0.0,0,0
1582727885261,2184203,0.0,0,0
1582727885361,2190141,0.0,0,0
1582727885461,2191396,0.0,0,0
1582727885562,2296873,0.0,0,0
1582727885661,2905050,0.0,0,0
1582727885762,2605372,0.0,0,0
1582727885862,2180698,0.0,0,0
1582727885962,2172553,0.0,0,0
1582727886071,2430250,0.0,0,0
1582727886162,2966980,0.0,0,0
1582727886262,3039760,0.0,0,0
1582727886362,2949971,0.0,0,0
1582727886462,2982070,0.0,0,0
1582727886562,2893304,0.0,0,0
1582727886663,2712660,0.0,0,0
1582727886763,2757723,0.0,0,0
1582727886862,2881789,0.0,0,0
1582727886962,2850985,0.0,0,0
1582727887063,2856844,0.0,0,0
1582727887164,2868926,0.0,0,0
1582727887262,2936961,0.0,0,0
1582727887369,2986066,0.0,0,0
1582727887463,2741557,0.0,0,0
1582727887563,2201677,0.0,0,0
1582727887663,2215479,0.0,0,0
1582727887763,2213488,0.0,0,0
1582727887861,2214123,0.0,0,0
1582727887963,2311049,0.0,0,0
1582727888062,2920295,0.0,0,0
1582727888162,2835083,0.0,0,0
1582727888263,2745846,0.0,0,0
1582727888362,2531646,0.0,0,0
1582727888461,2197017,0.0,0,0
1582727888561,2197903,0.0,0,0
1582727888661,2198112,0.0,0,0
1582727888761,2199998,0.0,0,0
1582727888862,2198194,0.0,0,0
1582727888961,2365323,0.0,0,0
1582727889061,2825302,0.0,0,0
1582727889162,2765433,0.0,0,0
1582727889262,2244935,0.0,0,0
1582727889362,2212334,0.0,0,0
1582727889462,2190453,0.0,0,0
1582727889562,2183075,0.0,0,0
1582727889662,2173383,0.0,0,0
1582727889762,2157594,0.0,0,0
1582727889862,2137451,0.0,0,0
1582727889962,2124796,0.0,0,0
1582727890063,2128563,0.0,0,0
1582727890162,2147958,0.0,0,0
1582727890262,2187599,0.0,0,0
1582727890363,2212375,0.0,0,0
1582727890463,2252385,0.0,0,0
1582727890562,2223582,0.0,0,0
1582727890663,2206810,0.0,0,0
1582727890763,2207019,0.0,0,0
1582727890865,2194718,0.0,0,0
1582727890965,2193232,0.0,0,0
1582727891064,2197748,0.0,0,0
1582727891163,2196290,0.0,0,0
1582727891265,2191808,0.0,0,0
1582727891364,2195233,0.0,0,0
1582727891464,2216339,0.0,0,0
1582727891565,2230996,0.0,0,0
1582727891664,2222594,0.0,0,0
1582727891764,2225949,0.0,0,0
1582727891865,2208002,0.0,0,0
1582727891964,2227798,0.0,0,0
1582727892064,2277314,0.0,0,0
1582727892164,2266329,0.0,0,0
1582727892264,2393143,0.0,0,0
1582727892364,2308520,0.0,0,0
1582727892464,2233196,0.0,0,0
1582727892564,2244354,0.0,0,0
1582727892664,2215527,0.0,0,0
1582727892764,2209403,0.0,0,0
1582727892878,2214107,0.0,0,0
1582727893090,2201173,0.0,0,0
1582727893091,2194244,0.0,0,0
1582727893174,2191968,0.0,0,0
1582727893286,2205846,0.0,0,0
1582727893365,2201274,0.0,0,0
1582727893464,2197458,0.0,0,0
1582727893565,2197297,0.0,0,0
1582727893667,2204475,0.0,0,0
1582727893766,2207016,0.0,0,0
1582727893866,2208345,0.0,0,0
1582727893965,2201233,0.0,0,0
1582727894065,2198654,0.0,0,0
1582727894167,2194397,0.0,0,0
1582727894266,2197626,0.0,0,0
1582727894365,2209962,0.0,0,0
1582727894482,2236965,0.0,0,0
1582727894567,2221775,0.0,0,0
1582727894667,2249664,0.0,0,0
1582727894766,2278555,0.0,0,0
1582727894868,2259774,0.0,0,0
1582727894968,2256614,0.0,0,0
1582727895067,2260216,0.0,0,0
1582727895166,2272170,0.0,0,0
1582727895266,2246841,0.0,0,0
1582727895366,2276452,0.0,0,0
1582727895467,2273420,0.0,0,0
1582727895566,2266688,0.0,0,0
1582727895666,2258935,0.0,0,0
1582727895767,2237040,0.0,0,0
1582727895866,2236936,0.0,0,0
1582727895966,2226935,0.0,0,0
1582727896069,2228209,0.0,0,0
1582727896232,2228010,0.0,0,0
1582727896267,2224073,0.0,0,0
1582727896367,2225663,0.0,0,0
1582727896468,2226468,0.0,0,0
1582727896567,2226606,0.0,0,0
1582727896667,2222926,0.0,0,0
1582727896769,2220016,0.0,0,0
1582727896868,2207624,0.0,0,0
1582727896967,2211908,0.0,0,0
1582727897068,2215480,0.0,0,0
1582727897167,2219273,0.0,0,0
1582727897267,2221800,0.0,0,0
1582727897369,2222688,0.0,0,0
1582727897467,2224451,0.0,0,0
1582727897567,2220665,0.0,0,0
1582727897667,2218128,0.0,0,0
1582727897767,2218994,0.0,0,0
1582727897868,2219698,0.0,0,0
1582727897970,2225134,0.0,0,0
1582727898068,2232915,0.0,0,0
1582727898168,2232645,0.0,0,0
1582727898268,2230399,0.0,0,0
1582727898368,2226851,0.0,0,0
1582727898469,2227015,0.0,0,0
1582727898568,2227827,0.0,0,0
1582727898668,2231956,0.0,0,0
1582727898771,2232736,0.0,0,0
1582727898869,2232607,0.0,0,0
1582727898968,2235069,0.0,0,0
1582727899069,2246717,0.0,0,0
1582727899168,2248539,0.0,0,0
1582727899268,2263490,0.0,0,0
1582727899369,2278280,0.0,0,0
1582727899468,2285893,0.0,0,0
1582727899568,2291392,0.0,0,0
1582727899669,2294439,0.0,0,0
1582727899769,2296579,0.0,0,0
1582727899869,2299895,0.0,0,0
1582727899969,2301816,0.0,0,0
1582727900069,2301830,0.0,0,0
1582727900169,2293095,0.0,0,0
1582727900269,2288067,0.0,0,0
1582727900369,2287593,0.0,0,0
1582727900469,2287763,0.0,0,0
1582727900569,2287542,0.0,0,0
1582727900669,2287690,0.0,0,0
1582727900769,2287570,0.0,0,0
1582727900870,2287456,0.0,0,0
1582727900969,2286915,0.0,0,0
1582727901069,2287074,0.0,0,0
1582727901170,2286821,0.0,0,0
1582727901270,2285529,0.0,0,0
1582727901370,2284739,0.0,0,0
1582727901472,2284859,0.0,0,0
1582727901570,2282557,0.0,0,0
1582727901670,2280322,0.0,0,0
1582727901779,2272872,0.0,0,0
1582727901874,2250323,0.0,0,0
1582727901988,2249868,0.0,0,0
1582727902095,2238708,0.0,0,0
1582727902173,2241073,0.0,0,0
1582727902273,2237405,0.0,0,0
1582727902372,2236230,0.0,0,0
1582727902475,2237737,0.0,0,0
1582727902572,2232736,0.0,0,0
1582727902673,2233541,0.0,0,0
1582727902773,2238810,0.0,0,0
1582727902871,2249914,0.0,0,0
1582727902971,2225195,0.0,0,0
1582727903073,2222066,0.0,0,0
1582727903171,2220360,0.0,0,0
1582727903272,2226743,0.0,0,0
1582727903373,2226640,0.0,0,0
1582727903499,2217441,0.0,0,0
1582727903645,2218072,0.0,0,0
1582727903646,2218072,0.0,0,0
1582727903674,2204342,0.0,0,0
1582727903802,2204107,0.0,0,0
1582727903884,2206569,0.0,0,0
1582727903974,2209841,0.0,0,0
1582727904074,2211533,0.0,0,0
1582727904175,2213670,0.0,0,0
1582727904277,2215020,0.0,0,0
1582727904375,2215907,0.0,0,0
1582727904475,2218926,0.0,0,0
1582727904575,2219776,0.0,0,0
1582727904674,2216393,0.0,0,0
1582727904775,2215722,0.0,0,0
1582727904875,2216770,0.0,0,0
1582727904975,2217113,0.0,0,0
1582727905091,2216941,0.0,0,0
1582727905176,2217606,0.0,0,0
1582727905276,2218742,0.0,0,0
1582727905376,2219764,0.0,0,0
1582727905476,2220328,0.0,0,0
1582727905578,2220625,0.0,0,0
1582727905676,2220583,0.0,0,0
1582727905776,2220373,0.0,0,0
1582727905876,2220689,0.0,0,0
1582727905976,2220217,0.0,0,0
1582727906085,2219483,0.0,0,0
1582727906176,2219401,0.0,0,0
1582727906276,2218313,0.0,0,0
1582727906376,2218076,0.0,0,0
1582727906476,2218513,0.0,0,0
1582727906576,2219061,0.0,0,0
1582727906691,2219013,0.0,0,0
1582727906776,2218972,0.0,0,0
1582727906877,2218947,0.0,0,0
1582727906976,2218840,0.0,0,0
1582727907081,2218890,0.0,0,0
1582727907177,2219284,0.0,0,0
1582727907277,2219646,0.0,0,0
1582727907379,2219917,0.0,0,0
1582727907477,2219990,0.0,0,0
1582727907579,2220184,0.0,0,0
1582727907678,2219929,0.0,0,0
1582727907777,2220063,0.0,0,0
1582727907877,2220102,0.0,0,0
1582727907977,2219862,0.0,0,0
1582727908081,2219655,0.0,0,0
1582727908177,2219569,0.0,0,0
1582727908352,2219426,0.0,0,0
1582727908379,2219457,0.0,0,0
1582727908475,2219283,0.0,0,0
1582727908578,2219473,0.0,0,0
1582727908678,2219409,0.0,0,0
1582727908777,2219231,0.0,0,0
1582727908889,2219280,0.0,0,0
1582727908976,2219239,0.0,0,0
1582727909077,2219044,0.0,0,0
1582727909176,2219213,0.0,0,0
1582727909278,2219470,0.0,0,0
1582727909376,2219372,0.0,0,0
1582727909477,2219745,0.0,0,0
1582727909578,2219717,0.0,0,0
1582727909676,2219579,0.0,0,0
1582727909775,2219422,0.0,0,0
1582727909876,2219026,0.0,0,0
1582727909975,2218909,0.0,0,0
1582727910075,2218582,0.0,0,0
1582727910176,2218111,0.0,0,0
1582727910276,2217613,0.0,0,0
1582727910376,2217305,0.0,0,0
1582727910476,2216930,0.0,0,0
1582727910575,2216762,0.0,0,0
1582727910675,2216334,0.0,0,0
1582727910775,2216024,0.0,0,0
1582727910875,2215698,0.0,0,0
1582727910975,2215308,0.0,0,0
1582727911079,2215151,0.0,0,0
1582727911177,2214790,0.0,0,0
1582727911276,2214564,0.0,0,0
1582727911376,2213969,0.0,0,0
1582727911476,2213357,0.0,0,0
1582727911576,2213276,0.0,0,0
1582727911679,2213145,0.0,0,0
1582727911776,2212858,0.0,0,0
1582727911877,2212575,0.0,0,0
1582727911976,2212023,0.0,0,0
1582727912079,2211205,0.0,0,0
1582727912177,2210512,0.0,0,0
1582727912277,2209833,0.0,0,0
1582727912379,2209582,0.0,0,0
1582727912477,2208692,0.0,0,0
1582727912577,2208140,0.0,0,0
1582727912677,2207442,0.0,0,0
1582727912777,2206495,0.0,0,0
1582727912878,2205873,0.0,0,0
1582727912976,2205209,0.0,0,0
1582727913077,2204350,0.0,0,0
1582727913176,2203465,0.0,0,0
1582727913276,2202843,0.0,0,0
1582727913377,2201956,0.0,0,0
1582727913476,2201659,0.0,0,0
1582727913576,2201555,0.0,0,0
1582727913676,2201106,0.0,0,0
1582727913777,2200490,0.0,0,0
1582727913876,2200012,0.0,0,0
1582727913976,2199677,0.0,0,0
1582727914080,2199148,0.0,0,0
1582727914177,2198899,0.0,0,0
1582727914276,2198911,0.0,0,0
1582727914377,2198377,0.0,0,0
1582727914477,2197981,0.0,0,0
1582727914576,2197695,0.0,0,0
1582727914677,2197210,0.0,0,0
1582727914779,2197157,0.0,0,0
1582727914877,2197062,0.0,0,0
1582727914977,2197080,0.0,0,0
1582727915078,2196709,0.0,0,0
1582727915177,2196352,0.0,0,0
1582727915277,2196072,0.0,0,0
1582727915377,2195928,0.0,0,0
1582727915477,2195660,0.0,0,0
1582727915577,2195491,0.0,0,0
1582727915678,2195534,0.0,0,0
1582727915778,2195324,0.0,0,0
1582727915878,2195129,0.0,0,0
1582727915978,2194851,0.0,0,0
1582727916078,2194628,0.0,0,0
1582727916178,2194663,0.0,0,0
1582727916278,2194620,0.0,0,0
1582727916378,2194593,0.0,0,0
1582727916478,2194401,0.0,0,0
1582727916578,2194305,0.0,0,0
1582727916678,2194385,0.0,0,0
1582727916778,2194199,0.0,0,0
1582727916878,2194372,0.0,0,0
1582727916978,2194387,0.0,0,0
1582727917078,2194194,0.0,0,0
1582727917178,2194002,0.0,0,0
1582727917278,2193871,0.0,0,0
1582727917379,2193764,0.0,0,0
1582727917478,2193722,0.0,0,0
1582727917578,2193654,0.0,0,0
1582727917680,2193550,0.0,0,0
1582727917778,2193569,0.0,0,0
1582727917879,2193368,0.0,0,0
1582727917979,2193357,0.0,0,0
1582727918079,2193157,0.0,0,0
1582727918179,2193211,0.0,0,0
1582727918279,2193448,0.0,0,0
1582727918379,2193245,0.0,0,0
1582727918479,2193095,0.0,0,0
1582727918579,2193042,0.0,0,0
1582727918679,2192999,0.0,0,0
1582727918779,2192763,0.0,0,0
1582727918880,2192816,0.0,0,0
1582727918979,2192709,0.0,0,0
1582727919079,2192403,0.0,0,0
1582727919181,2192102,0.0,0,0
1582727919280,2191994,0.0,0,0
1582727919380,2191889,0.0,0,0
1582727919480,2191941,0.0,0,0
1582727919580,2191609,0.0,0,0
1582727919680,2191394,0.0,0,0
1582727919781,2190957,0.0,0,0
1582727919881,2190643,0.0,0,0
1582727919981,2190599,0.0,0,0
1582727920083,2190412,0.0,1,0
1582727920181,2190357,0.0,1,0
1582727920280,2190065,0.0,1,0
1582727920381,2189709,0.0,1,0
1582727920480,2189786,0.0,1,0
1582727920580,2189847,0.0,1,0
1582727920681,2190047,0.0,1,0
1582727920780,2190084,0.0,1,0
1582727920880,2189867,0.0,1,0
1582727920981,2189561,0.0,1,0
1582727921081,2189380,0.0,1,0
1582727921181,2189138,0.0,1,0
1582727921281,2188910,0.0,1,0
1582727921381,2188649,0.0,1,0
1582727921481,2188109,0.0,1,0
1582727921581,2187783,0.0,1,0
1582727921681,2187480,0.0,1,0
1582727921781,2187242,0.0,1,0
1582727921881,2187185,0.0,1,0
1582727921981,2186674,0.0,1,0
1582727922081,2186123,0.0,1,0
1582727922182,2185843,0.0,1,0
1582727922282,2185411,0.0,1,0
1582727922382,2185260,0.0,1,0
1582727922482,2184926,0.0,1,0
1582727922582,2184446,0.0,1,0
1582727922683,2184217,0.0,1,0
1582727922783,2183721,0.0,1,0
1582727922882,2183389,0.0,1,0
1582727922982,2183136,0.0,1,0
1582727923083,2182857,0.0,1,0
1582727923183,2182352,0.0,1,0
1582727923282,2182225,0.0,1,0
1582727923383,2181905,0.0,1,0
1582727923483,2181478,0.0,1,0
1582727923583,2181443,0.0,1,0
1582727923683,2181136,0.0,1,0
1582727923783,2180982,0.0,1,0
1582727923883,2180695,0.0,1,0
1582727923983,2180541,0.0,1,0
1582727924083,2180408,0.0,1,0
1582727924183,2180326,0.0,1,0
1582727924283,2180110,0.0,1,0
1582727924383,2180043,0.0,1,0
1582727924483,2179853,0.0,1,0
1582727924583,2179616,0.0,1,0
1582727924683,2179474,0.0,1,0
1582727924783,2179195,0.0,1,0
1582727924884,2179097,0.0,1,0
1582727924983,2179058,0.0,1,0
1582727925083,2178858,0.0,1,0
1582727925184,2178912,0.0,1,0
1582727925283,2178574,0.0,1,0
1582727925383,2178498,0.0,1,0
1582727925498,2178472,0.0,1,0
1582727925584,2178337,0.0,1,0
1582727925683,2178426,0.0,1,0
1582727925783,2178407,0.0,1,0
1582727925883,2178221,0.0,1,0
1582727925983,2178334,0.0,1,0
1582727926085,2178191,0.0,1,0
1582727926183,2178367,0.0,1,0
1582727926285,2178613,0.0,1,0
1582727926385,2178419,0.0,1,0
1582727926486,2178702,0.0,1,0
1582727926586,2178538,0.0,1,0
1582727926686,2178747,0.0,1,0
1582727926784,2178900,0.0,1,0
1582727926886,2178960,0.0,1,0
1582727926986,2178911,0.0,1,0
1582727927086,2179095,0.0,1,0
1582727927186,2179426,0.0,1,0
1582727927286,2179113,0.0,1,0
1582727927385,2179336,0.0,1,0
1582727927485,2179269,0.0,1,0
1582727927585,2179247,0.0,1,0
1582727927685,2179348,0.0,1,0
1582727927785,2179284,0.0,1,0
1582727927885,2179234,0.0,1,0
1582727927985,2179289,0.0,1,0
1582727928085,2179143,0.0,1,0
1582727928186,2179263,0.0,1,0
1582727928286,2179070,0.0,1,0
1582727928386,2178965,0.0,1,0
1582727928486,2179111,0.0,1,0
1582727928586,2179107,0.0,1,0
1582727928686,2178992,0.0,1,0
1582727928786,2178994,0.0,1,0
1582727928886,2179067,0.0,1,0
1582727928986,2178908,0.0,1,0
1582727929089,2178978,0.0,1,0
1582727929186,2178811,0.0,1,0
1582727929286,2179046,0.0,1,0
1582727929387,2178935,0.0,1,0
1582727929486,2178944,0.0,1,0
1582727929586,2179013,0.0,1,0
1582727929687,2179098,0.0,1,0
1582727929788,2179004,0.0,1,0
1582727929887,2179294,0.0,1,0
1582727929988,2179284,0.0,1,0
1582727930089,2179194,0.0,1,0
1582727930187,2179375,0.0,1,0
1582727930288,2179163,0.0,1,0
1582727930388,2179341,0.0,1,0
1582727930488,2179118,0.0,1,0
1582727930588,2179091,0.0,1,0
1582727930688,2178946,0.0,1,0
1582727930788,2178887,0.0,1,0
1582727930888,2178766,0.0,1,0
1582727930987,2178759,0.0,1,0
1582727931091,2178704,0.0,1,0
1582727931188,2178466,0.0,1,0
1582727931288,2178478,0.0,1,0
1582727931388,2178203,0.0,1,0
1582727931488,2178100,0.0,1,0
1582727931588,2177861,0.0,1,0
1582727931688,2177769,0.0,1,0
1582727931788,2177575,0.0,1,0
1582727931888,2177563,0.0,1,0
1582727931988,2177331,0.0,1,0
1582727932089,2177212,0.0,1,0
1582727932188,2177166,0.0,1,0
1582727932288,2176901,0.0,1,0
1582727932389,2176871,0.0,1,0
1582727932488,2176852,0.0,1,0
1582727932588,2176921,0.0,1,0
1582727932689,2176667,0.0,1,0
1582727932789,2176682,0.0,1,0
1582727932888,2176501,0.0,1,0
1582727932989,2176562,0.0,1,0
1582727933089,2176418,0.0,1,0
1582727933189,2176424,0.0,1,0
1582727933290,2176417,0.0,1,0
1582727933390,2176140,0.0,1,0
1582727933489,2176170,0.0,1,0
1582727933590,2175886,0.0,1,0
1582727933690,2175721,0.0,1,0
1582727933790,2175457,0.0,1,0
1582727933890,2175516,0.0,1,0
1582727933991,2175246,0.0,1,0
1582727934091,2174841,0.0,1,0
1582727934192,2174651,0.0,1,0
1582727934291,2174247,0.0,1,0
1582727934390,2174305,0.0,1,0
1582727934491,2174111,0.0,1,0
1582727934590,2173939,0.0,1,0
1582727934690,2173656,0.0,1,0
1582727934791,2173252,0.0,1,0
1582727934890,2172995,0.0,1,0
1582727934990,2172833,0.0,1,0
1582727935090,2172633,0.0,1,0
1582727935190,2172669,0.0,1,0
1582727935290,2172171,0.0,1,0
1582727935391,2171815,0.0,1,0
1582727935490,2171699,0.0,1,0
1582727935590,2171336,0.0,1,0
1582727935691,2171450,0.0,1,0
1582727935791,2171402,0.0,1,0
1582727935890,2171291,0.0,1,0
1582727935991,2171042,0.0,1,0
1582727936091,2170492,1.0,1,d
1582727936191,2170395,1.0,1,d
1582727936291,2170131,1.0,1,d
1582727936391,2170050,1.0,1,d
1582727936491,2169796,1.0,1,d
1582727936591,2169422,1.0,1,d
1582727936691,2169115,1.0,1,d
1582727936791,2168971,1.0,1,d
1582727936893,2168590,1.0,1,d
1582727936992,2168214,1.0,1,d
1582727937092,2168333,1.0,1,d
1582727937192,2167927,1.0,1,d
1582727937292,2167302,1.0,1,d
1582727937392,2167007,1.0,1,d
1582727937493,2166616,1.0,1,d
1582727937592,2166379,1.0,1,d
1582727937692,2165991,1.0,1,d
1582727937793,2165955,1.0,1,d
1582727937892,2165560,1.0,1,d
1582727937992,2165221,1.0,1,d
1582727938092,2164946,0.0,1,0
1582727938192,2164684,0.0,1,0
1582727938292,2164128,0.0,1,0
1582727938393,2163555,0.0,1,0
1582727938492,2163262,0.0,1,0
1582727938592,2163013,0.0,1,0
1582727938693,2162546,0.0,1,0
1582727938793,2162106,0.0,1,0
1582727938893,2161791,0.0,1,0
1582727938993,2161686,0.0,1,0
1582727939093,2161528,0.0,1,0
1582727939193,2160939,0.0,1,0
1582727939293,2160732,0.0,1,0
1582727939393,2160467,0.0,1,0
1582727939493,2160138,0.0,1,0
1582727939593,2159554,0.0,1,0
1582727939693,2159564,0.0,1,0
1582727939793,2159144,0.0,1,0
1582727939894,2158799,0.0,1,0
1582727939994,2158666,0.0,1,0
1582727940094,2158849,0.0,1,0
1582727940195,2159295,0.0,1,0
1582727940294,2159574,0.0,1,0
1582727940395,2159193,0.0,1,0
1582727940495,2158163,0.0,1,0
1582727940595,2157384,0.0,1,0
1582727940695,2156749,0.0,1,0
1582727940795,2156250,0.0,1,0
1582727940895,2155596,0.0,1,0
1582727940995,2155910,0.0,1,0
1582727941099,2156116,0.0,1,0
1582727941196,2155701,0.0,1,0
1582727941296,2155668,0.0,1,0
1582727941397,2155860,0.0,1,0
1582727941496,2155934,0.0,1,0
1582727941596,2156036,0.0,1,0
1582727941696,2156185,0.0,1,0
1582727941796,2156025,0.0,1,0
1582727941896,2155902,0.0,1,0
1582727941996,2155757,0.0,1,0
1582727942100,2155883,0.0,1,0
1582727942197,2155868,0.0,1,0
1582727942297,2156018,0.0,1,0
1582727942397,2156089,0.0,1,0
1582727942496,2155908,0.0,1,0
1582727942597,2155905,0.0,1,0
1582727942697,2155985,0.0,1,0
1582727942797,2155895,0.0,1,0
1582727942897,2155855,0.0,1,0
1582727942997,2156113,0.0,1,0
1582727943102,2156037,0.0,1,0
1582727943197,2155970,0.0,1,0
1582727943297,2156401,0.0,1,0
1582727943397,2156609,0.0,1,0
1582727943497,2156805,0.0,1,0
1582727943597,2156874,0.0,1,0
1582727943698,2157277,0.0,1,0
1582727943798,2157420,0.0,1,0
1582727943899,2157752,0.0,1,0
1582727943998,2157960,0.0,1,0
1582727944099,2158199,0.0,1,0
1582727944198,2158622,0.0,1,0
1582727944298,2158651,0.0,1,0
1582727944399,2158532,0.0,1,0
1582727944498,2158468,0.0,1,0
1582727944598,2158418,0.0,1,0
1582727944699,2158456,0.0,1,0
1582727944799,2158588,0.0,1,0
1582727944899,2158345,0.0,1,0
1582727944998,2158515,0.0,1,0
1582727945098,2158397,0.0,1,0
1582727945198,2158418,0.0,1,0
1582727945298,2158428,0.0,1,0
1582727945398,2158697,0.0,1,0
1582727945499,2158648,0.0,1,0
1582727945599,2158675,0.0,1,0
1582727945699,2158590,0.0,1,0
1582727945799,2158697,0.0,1,0
1582727945899,2158663,0.0,1,0
1582727945999,2158732,0.0,1,0
1582727946099,2159014,0.0,1,0
1582727946199,2158968,0.0,1,0
1582727946299,2158803,0.0,1,0
1582727946399,2158902,0.0,1,0
1582727946499,2158960,0.0,1,0
1582727946599,2159052,0.0,1,0
1582727946699,2159143,0.0,1,0
1582727946800,2159286,0.0,1,0
1582727946899,2159094,0.0,1,0
1582727946999,2159119,0.0,1,0
1582727947100,2159357,0.0,1,0
1582727947200,2159451,0.0,1,0
1582727947299,2159686,0.0,1,0
1582727947400,2159871,0.0,1,0
1582727947501,2160177,0.0,1,0
1582727947600,2160298,0.0,1,0
1582727947701,2160584,0.0,1,0
1582727947800,2160898,0.0,1,0
1582727947900,2161051,0.0,1,0
1582727948001,2161392,0.0,1,0
1582727948131,2161455,0.0,1,0
1582727948203,2161661,0.0,1,0
1582727948304,2162144,0.0,1,0
1582727948401,2162185,0.0,1,0
1582727948501,2162677,0.0,1,0
1582727948601,2162903,0.0,1,0
1582727948701,2163405,0.0,1,0
1582727948800,2163548,0.0,1,0
1582727948901,2163692,0.0,1,0
1582727949001,2163818,0.0,1,0
1582727949101,2163671,0.0,1,0
1582727949201,2163880,0.0,1,0
1582727949301,2164108,0.0,1,0
1582727949401,2163820,0.0,1,0
1582727949501,2164016,0.0,1,0
1582727949601,2164113,0.0,1,0
1582727949701,2163959,0.0,1,0
1582727949802,2164045,0.0,1,0
1582727949902,2164107,0.0,1,0
1582727950001,2164114,0.0,1,0
1582727950102,2164024,0.0,1,0
1582727950202,2164031,0.0,1,0
1582727950301,2164060,0.0,1,0
1582727950402,2164299,0.0,1,0
1582727950502,2164265,0.0,1,0
1582727950602,2164492,0.0,1,0
1582727950702,2164442,0.0,1,0
1582727950801,2164734,0.0,1,0
1582727950901,2165011,0.0,1,0
1582727951002,2165266,0.0,1,0
1582727951101,2165679,0.0,1,0
1582727951201,2165873,0.0,1,0
1582727951302,2166110,0.0,1,0
1582727951402,2166340,0.0,1,0
1582727951501,2166204,0.0,1,0
1582727951602,2166580,0.0,1,0
1582727951702,2166598,0.0,1,0
1582727951802,2166553,0.0,1,0
1582727951902,2166493,0.0,1,0
1582727952002,2166490,0.0,1,0
1582727952101,2166626,0.0,1,0
1582727952202,2166537,0.0,1,0
1582727952301,2166565,0.0,1,0
1582727952402,2166452,0.0,1,0
1582727952502,2166225,0.0,1,0
1582727952602,2166235,0.0,1,0
1582727952702,2166139,0.0,1,0
1582727952802,2165941,0.0,1,0
1582727952902,2165848,0.0,1,0
1582727953002,2165528,0.0,1,0
1582727953103,2165033,0.0,1,0
1582727953202,2164591,0.0,1,0
1582727953302,2164510,0.0,1,0
1582727953403,2164328,0.0,1,0
1582727953502,2163945,0.0,1,0
1582727953602,2163646,0.0,1,0
1582727953703,2163064,0.0,1,0
1582727953802,2162749,0.0,1,0
1582727953903,2162346,0.0,1,0
1582727954003,2162079,0.0,1,0
1582727954103,2161726,0.0,1,0
1582727954203,2161261,0.0,1,0
1582727954303,2161050,0.0,1,0
1582727954403,2160986,0.0,1,0
1582727954504,2160948,0.0,1,0
1582727954604,2161123,0.0,1,0
1582727954704,2161091,0.0,1,0
1582727954804,2161188,0.0,1,0
1582727954904,2161124,0.0,1,0
1582727955004,2161170,0.0,1,0
1582727955104,2161167,0.0,1,0
1582727955204,2160864,0.0,1,0
1582727955304,2160376,0.0,1,0
1582727955404,2160157,0.0,1,0
1582727955505,2159629,0.0,1,0
1582727955604,2159323,0.0,1,0
1582727955704,2158933,0.0,1,0
1582727955804,2158732,0.0,1,0
1582727955904,2159600,0.0,1,0
1582727956004,2160285,0.0,1,0
1582727956105,2160618,0.0,1,0
1582727956205,2161153,0.0,1,0
1582727956304,2161074,0.0,1,0
1582727956405,2160509,0.0,1,0
1582727956504,2160034,0.0,1,0
1582727956604,2159695,0.0,1,0
1582727956705,2159303,0.0,1,0
1582727956805,2159261,0.0,1,0
1582727956905,2158922,0.0,1,0
1582727957005,2158787,0.0,1,0
1582727957105,2158669,0.0,1,0
1582727957205,2158489,0.0,1,0
1582727957305,2158186,0.0,1,0
1582727957405,2157994,0.0,1,0
1582727957505,2157996,0.0,1,0
1582727957605,2158126,0.0,1,0
1582727957705,2157988,0.0,1,0
1582727957805,2157786,0.0,1,0
1582727957906,2157675,0.0,1,0
1582727958005,2157707,0.0,1,0
1582727958107,2157542,0.0,1,0
1582727958208,2157823,0.0,1,0
1582727958306,2157822,0.0,1,0
1582727958406,2158094,0.0,1,0
1582727958508,2158219,0.0,1,0
1582727958606,2158397,0.0,1,0
1582727958707,2158470,0.0,1,0
1582727958807,2158784,0.0,1,0
1582727958907,2158737,0.0,1,0
1582727959006,2159001,0.0,1,0
1582727959110,2159087,0.0,1,0
1582727959206,2159025,0.0,1,0
1582727959306,2159186,0.0,1,0
1582727959407,2159217,0.0,1,0
1582727959507,2159368,0.0,1,0
1582727959606,2158953,0.0,1,0
1582727959707,2158950,0.0,1,0
1582727959808,2158682,0.0,1,0
1582727959907,2158660,0.0,1,0
1582727960007,2158507,0.0,1,0
1582727960108,2158324,0.0,1,0
1582727960207,2158332,0.0,1,0
1582727960307,2158268,0.0,1,0
1582727960407,2158079,0.0,1,0
1582727960507,2157841,0.0,1,0
1582727960608,2157434,0.0,1,0
1582727960707,2157711,0.0,1,0
1582727960807,2157934,0.0,1,0
1582727960908,2157949,0.0,1,0
1582727961007,2157991,0.0,1,0
1582727961110,2157899,0.0,1,0
1582727961208,2157894,0.0,1,0
1582727961308,2157959,0.0,1,0
1582727961408,2158173,0.0,1,0
1582727961508,2158126,0.0,1,0
1582727961609,2158382,0.0,1,0
1582727961708,2158310,0.0,1,0
1582727961809,2158663,0.0,1,0
1582727961909,2158817,0.0,1,0
1582727962008,2158896,0.0,1,0
1582727962109,2159108,0.0,1,0
1582727962209,2159566,0.0,1,0
1582727962309,2159526,0.0,1,0
1582727962410,2159518,0.0,1,0
1582727962509,2159537,0.0,1,0
1582727962609,2159812,0.0,1,0
1582727962709,2159781,0.0,1,0
1582727962809,2159768,0.0,1,0
1582727962908,2159874,0.0,1,0
1582727963009,2159861,0.0,1,0
1582727963109,2159759,0.0,1,0
1582727963209,2159789,0.0,1,0
1582727963309,2159948,0.0,1,0
1582727963409,2160136,0.0,1,0
1582727963509,2159984,0.0,1,0
1582727963610,2159715,0.0,1,0
1582727963709,2159833,0.0,1,0
1582727963809,2159684,0.0,1,0
1582727963910,2159613,0.0,1,0
1582727964009,2159668,0.0,1,0
1582727964110,2159733,0.0,1,0
1582727964210,2159462,0.0,1,0
1582727964310,2159449,0.0,1,0
1582727964410,2159426,0.0,1,0
1582727964510,2159631,0.0,1,0
1582727964610,2159629,0.0,1,0
1582727964710,2159751,0.0,1,0
1582727964810,2159578,0.0,1,0
1582727964910,2159686,0.0,1,0
1582727965010,2159645,0.0,1,0
1582727965112,2159673,0.0,1,0
1582727965211,2159761,0.0,1,0
1582727965310,2159981,0.0,1,0
1582727965411,2160050,0.0,1,0
1582727965511,2159869,0.0,1,0
1582727965611,2159978,0.0,1,0
1582727965711,2160049,0.0,1,0
1582727965811,2160127,0.0,1,0
1582727965913,2160387,0.0,1,0
1582727966013,2160759,0.0,1,0
1582727966113,2161054,0.0,1,0
1582727966212,2161190,0.0,1,0
1582727966312,2161502,0.0,1,0
1582727966412,2161935,0.0,1,0
1582727966511,2162226,0.0,1,0
1582727966612,2162688,0.0,1,0
1582727966711,2163098,0.0,1,0
1582727966811,2163533,0.0,1,0
1582727966912,2163688,0.0,1,0
1582727967011,2164010,0.0,1,0
1582727967111,2164237,0.0,1,0
1582727967212,2164501,0.0,1,0
1582727967311,2164802,0.0,1,0
1582727967412,2165067,0.0,1,0
1582727967512,2165309,0.0,1,0
1582727967612,2165473,0.0,1,0
1582727967712,2165686,0.0,1,0
1582727967812,2165726,0.0,1,0
1582727967912,2165704,0.0,1,0
1582727968012,2165755,0.0,1,0
1582727968113,2166042,0.0,1,0
1582727968212,2166198,0.0,1,0
1582727968312,2166158,0.0,1,0
1582727968413,2166028,0.0,1,0
1582727968512,2166089,0.0,1,0
1582727968612,2166014,0.0,1,0
1582727968714,2166139,0.0,1,0
1582727968813,2166111,0.0,1,0
1582727968913,2166142,0.0,1,0
1582727969014,2166005,0.0,1,0
1582727969114,2165959,0.0,1,0
1582727969214,2165961,0.0,1,0
1582727969313,2165961,0.0,1,0
1582727969414,2165936,0.0,1,0
1582727969513,2165803,0.0,1,0
1582727969614,2165765,0.0,1,0
1582727969714,2165861,0.0,1,0
1582727969813,2166015,0.0,1,0
1582727969914,2165896,0.0,1,0
1582727970013,2165973,0.0,1,0
1582727970113,2165889,0.0,1,0
1582727970214,2166083,0.0,1,0
1582727970313,2166068,0.0,1,0
1582727970414,2166160,0.0,1,0
1582727970514,2166634,0.0,1,0
1582727970614,2166890,0.0,1,0
1582727970714,2167077,0.0,1,0
1582727970814,2167304,0.0,1,0
1582727970914,2167605,0.0,1,0
1582727971014,2167764,0.0,1,0
1582727971115,2168035,0.0,1,0
1582727971215,2168426,0.0,1,0
1582727971314,2168657,0.0,1,0
1582727971415,2168940,0.0,1,0
1582727971514,2169193,0.0,1,0
1582727971614,2169334,0.0,1,0
1582727971715,2169366,0.0,1,0
1582727971815,2169393,0.0,1,0
1582727971915,2169494,0.0,1,0
1582727972015,2169371,0.0,1,0
1582727972115,2169341,0.0,1,0
1582727972216,2169398,0.0,1,0
1582727972316,2169312,0.0,1,0
1582727972416,2169431,0.0,1,0
1582727972515,2169146,0.0,1,0
1582727972616,2168997,0.0,1,0
1582727972716,2169134,0.0,1,0
1582727972816,2168934,0.0,1,0
1582727972916,2168852,0.0,1,0
1582727973016,2168811,0.0,1,0
1582727973119,2168435,0.0,1,0
1582727973217,2168350,0.0,1,0
1582727973316,2168174,0.0,1,0
1582727973416,2168144,0.0,1,0
1582727973516,2167828,0.0,1,0
1582727973616,2167649,0.0,1,0
1582727973716,2167347,0.0,1,0
1582727973816,2167311,0.0,1,0
1582727973916,2167167,0.0,1,0
1582727974016,2166836,0.0,1,0
1582727974120,2166689,0.0,1,0
1582727974216,2166367,0.0,1,0
1582727974316,2166057,0.0,1,0
1582727974417,2165874,0.0,1,0
1582727974516,2165633,0.0,1,0
1582727974616,2165150,0.0,1,0
1582727974717,2165146,0.0,1,0
1582727974819,2164838,0.0,1,0
1582727974917,2164980,0.0,1,0
1582727975017,2165131,0.0,1,0
1582727975118,2164980,0.0,1,0
1582727975217,2164897,0.0,1,0
1582727975317,2164929,0.0,1,0
1582727975417,2164974,0.0,1,0
1582727975517,2165156,0.0,1,0
1582727975618,2165406,0.0,1,0
1582727975718,2165774,0.0,1,0
1582727975818,2165919,0.0,1,0
1582727975918,2166036,0.0,1,0
1582727976018,2166125,0.0,1,0
1582727976120,2166172,0.0,1,0
1582727976219,2166157,0.0,1,0
1582727976318,2166438,0.0,1,0
1582727976418,2166610,0.0,1,0
1582727976519,2166609,0.0,1,0
1582727976618,2166514,0.0,1,0
1582727976718,2166348,0.0,1,0
1582727976818,2166126,0.0,1,0
1582727976918,2166180,0.0,1,0
1582727977018,2166129,0.0,1,0
1582727977119,2166264,0.0,1,0
1582727977218,2165380,0.0,1,0
1582727977319,2165563,0.0,1,0
1582727977419,2165602,0.0,1,0
1582727977519,2165884,0.0,1,0
1582727977619,2166247,0.0,1,0
1582727977719,2166517,0.0,1,0
1582727977819,2166741,0.0,1,0
1582727977919,2166956,0.0,1,0
1582727978020,2166914,0.0,1,0
1582727978120,2167215,0.0,1,0
1582727978220,2167346,0.0,1,0
1582727978321,2167595,0.0,1,0
1582727978421,2167712,0.0,1,0
1582727978520,2167660,0.0,1,0
1582727978621,2167842,0.0,1,0
1582727978721,2167825,0.0,1,0
1582727978820,2167927,0.0,1,0
1582727978921,2168190,0.0,1,0
1582727979021,2168394,0.0,1,0
1582727979121,2168400,0.0,1,0
1582727979221,2168588,0.0,1,0
1582727979322,2168610,0.0,1,0
1582727979422,2168775,0.0,1,0
1582727979522,2169028,0.0,1,0
1582727979622,2169020,0.0,1,0
1582727979722,2169220,0.0,1,0
1582727979822,2169267,0.0,1,0
1582727979923,2169553,0.0,1,0
1582727980022,2169552,0.0,1,0
1582727980123,2169653,0.0,1,0
1582727980222,2169850,0.0,1,0
1582727980322,2170075,0.0,1,0
1582727980423,2170199,0.0,1,0
1582727980521,2170285,0.0,1,0
1582727980620,2170510,0.0,1,0
1582727980721,2170366,0.0,1,0
1582727980821,2170529,0.0,1,0
1582727980921,2170781,0.0,1,0
1582727981021,2170712,0.0,1,0
1582727981121,2170899,0.0,1,0
1582727981221,2171107,0.0,1,0
1582727981321,2171178,0.0,1,0
1582727981421,2171201,0.0,1,0
1582727981521,2171627,0.0,1,0
1582727981621,2171794,0.0,1,0
1582727981721,2171981,0.0,1,0
1582727981821,2172099,0.0,1,0
1582727981922,2172359,0.0,1,0
1582727982021,2172576,0.0,1,0
1582727982122,2172682,0.0,1,0
1582727982222,2172957,0.0,1,0
1582727982321,2172923,0.0,1,0
1582727982422,2172929,0.0,1,0
1582727982522,2173275,0.0,1,0
1582727982622,2173279,0.0,1,0
1582727982722,2173410,0.0,1,0
1582727982823,2173425,0.0,1,0
1582727982922,2173457,0.0,1,0
1582727983022,2173597,0.0,1,0
1582727983123,2173523,0.0,1,0
1582727983223,2173365,0.0,1,0
1582727983323,2173344,0.0,1,0
1582727983423,2173214,0.0,1,0
1582727983523,2173092,0.0,1,0
1582727983623,2172932,0.0,1,0
1582727983723,2172907,0.0,1,0
1582727983823,2172790,0.0,1,0
1582727983923,2172698,0.0,1,0
1582727984023,2172629,0.0,1,0
1582727984123,2172362,0.0,1,0
1582727984223,2172001,0.0,1,0
1582727984323,2171717,0.0,1,0
1582727984423,2171605,0.0,1,0
1582727984523,2171657,0.0,1,0
1582727984623,2171632,0.0,1,0
1582727984723,2171684,0.0,1,0
1582727984823,2171379,0.0,1,0
1582727984924,2171331,0.0,1,0
1582727985023,2171492,0.0,1,0
1582727985124,2171487,0.0,1,0
1582727985224,2171709,0.0,1,0
1582727985323,2171972,0.0,1,0
1582727985424,2171964,0.0,1,0
1582727985524,2172163,0.0,1,0
1582727985624,2172283,0.0,1,0
1582727985724,2172259,0.0,1,0
1582727985824,2172625,0.0,1,0
1582727985924,2172744,0.0,1,0
1582727986024,2172943,0.0,1,0
1582727986124,2172868,0.0,1,0
1582727986225,2172943,0.0,1,0
1582727986325,2172948,0.0,1,0
1582727986427,2173231,0.0,1,0
1582727986525,2172913,0.0,1,0
1582727986625,2173248,0.0,1,0
1582727986725,2173470,0.0,1,0
1582727986825,2173348,0.0,1,0
1582727986925,2173071,0.0,1,0
1582727987025,2173054,0.0,1,0
1582727987125,2172916,0.0,1,0
1582727987225,2172971,0.0,1,0
1582727987326,2172846,0.0,1,0
1582727987425,2172814,0.0,1,0
1582727987525,2172773,0.0,1,0
1582727987625,2172806,0.0,1,0
1582727987725,2172649,0.0,1,0
1582727987825,2172493,0.0,1,0
1582727987926,2172562,0.0,1,0
1582727988025,2172496,0.0,1,0
1582727988126,2172464,0.0,1,0
1582727988226,2172267,0.0,1,0
1582727988326,2172226,0.0,1,0
1582727988426,2172231,0.0,1,0
1582727988526,2172201,0.0,1,0
1582727988626,2171977,0.0,1,0
1582727988726,2171782,0.0,1,0
1582727988826,2171626,0.0,1,0
1582727988927,2171647,0.0,1,0
1582727989026,2171764,0.0,1,0
1582727989129,2171571,0.0,1,0
1582727989227,2171673,0.0,1,0
1582727989326,2171619,0.0,1,0
1582727989427,2171539,0.0,1,0
1582727989526,2171580,0.0,1,0
1582727989626,2171694,0.0,1,0
1582727989727,2171884,0.0,1,0
1582727989829,2171981,0.0,1,0
1582727989928,2171967,0.0,1,0
1582727990033,2172203,0.0,1,0
1582727990129,2172193,0.0,1,0
1582727990227,2172214,0.0,1,0
1582727990328,2172560,0.0,1,0
1582727990428,2172703,0.0,1,0
1582727990528,2172598,0.0,1,0
1582727990628,2172794,0.0,1,0
1582727990728,2172522,0.0,1,0
1582727990828,2172748,0.0,1,0
1582727990928,2172770,0.0,1,0
1582727991027,2172922,0.0,1,0
1582727991130,2172780,0.0,1,0
1582727991228,2172652,0.0,1,0
1582727991328,2172534,0.0,1,0
1582727991428,2172440,0.0,1,0
1582727991528,2172469,0.0,1,0
1582727991628,2172433,0.0,1,0
1582727991728,2172355,0.0,1,0
1582727991828,2172223,0.0,1,0
1582727991928,2172004,0.0,1,0
1582727992028,2171935,0.0,1,0
1582727992128,2171871,0.0,1,0
1582727992228,2171962,0.0,1,0
1582727992328,2171810,0.0,1,0
1582727992429,2171563,0.0,1,0
1582727992528,2171535,0.0,1,0
1582727992628,2171405,0.0,1,0
1582727992729,2171292,0.0,1,0
1582727992829,2171522,0.0,1,0
1582727992929,2171375,0.0,1,0
1582727993029,2171328,0.0,1,0
1582727993129,2171236,0.0,1,0
1582727993229,2170971,0.0,1,0
1582727993330,2170990,0.0,1,0
1582727993430,2171023,0.0,1,0
1582727993530,2170964,0.0,1,0
1582727993630,2170722,0.0,1,0
1582727993730,2170401,0.0,1,0
1582727993830,2170395,0.0,1,0
1582727993930,2170403,0.0,1,0
1582727994030,2170399,0.0,1,0
1582727994130,2170333,0.0,1,0
1582727994230,2170269,0.0,1,0
1582727994330,2170145,0.0,1,0
1582727994430,2170291,0.0,1,0
1582727994530,2170488,0.0,1,0
1582727994630,2170673,0.0,1,0
1582727994730,2170927,0.0,1,0
1582727994830,2170915,0.0,1,0
1582727994930,2170881,0.0,1,0
1582727995030,2170953,0.0,1,0
1582727995131,2171008,0.0,1,0
1582727995230,2171089,0.0,1,0
1582727995330,2171199,0.0,1,0
1582727995431,2171356,0.0,1,0
1582727995530,2171468,0.0,1,0
1582727995630,2171464,0.0,1,0
1582727995731,2171640,0.0,1,0
1582727995831,2171532,0.0,1,0
1582727995931,2171709,0.0,1,0
1582727996031,2171966,0.0,1,0
1582727996131,2171805,0.0,1,0
1582727996231,2171640,0.0,1,0
1582727996331,2171655,0.0,1,0
1582727996431,2171690,0.0,1,0
1582727996531,2171851,0.0,1,0
1582727996631,2171962,0.0,1,0
1582727996731,2171802,0.0,1,0
1582727996831,2171719,0.0,1,0
1582727996934,2171732,0.0,1,0
1582727997032,2171684,0.0,1,0
1582727997132,2171770,0.0,1,0
1582727997233,2171872,0.0,1,0
1582727997332,2171893,0.0,1,0
1582727997432,2171629,0.0,1,0
1582727997533,2171498,0.0,1,0
1582727997632,2171709,0.0,1,0
1582727997732,2171620,0.0,1,0
1582727997833,2171748,0.0,1,0
1582727997933,2171524,0.0,1,0
1582727998032,2171279,0.0,1,0
1582727998133,2171216,0.0,1,0
1582727998234,2171064,0.0,1,0
1582727998334,2171120,0.0,1,0
1582727998434,2170889,0.0,1,0
1582727998533,2170691,0.0,1,0
1582727998633,2170645,0.0,1,0
1582727998733,2170484,0.0,1,0
1582727998833,2170394,0.0,1,0
1582727998933,2170356,0.0,1,0
1582727999033,2170417,0.0,1,0
1582727999133,2170167,0.0,1,0
1582727999233,2170127,0.0,1,0
1582727999333,2170229,0.0,1,0
1582727999433,2170158,0.0,1,0
1582727999533,2170314,0.0,1,0
1582727999633,2170592,0.0,1,0
1582727999733,2170958,0.0,1,0
1582727999833,2171343,0.0,1,0
1582727999934,2171427,0.0,1,0
1582728000033,2171954,0.0,1,0
1582728000134,2172366,0.0,1,0
1582728000234,2172812,0.0,1,0
1582728000335,2172974,0.0,1,0
1582728000434,2173494,0.0,1,0
1582728000535,2173653,0.0,1,0
1582728000634,2173652,0.0,1,0
1582728000734,2173812,0.0,1,0
1582728000835,2173960,0.0,1,0
1582728000935,2173852,0.0,1,0
1582728001034,2174102,0.0,1,0
1582728001135,2174382,0.0,1,0
1582728001235,2174387,0.0,1,0
1582728001335,2174359,0.0,1,0
1582728001435,2174498,0.0,1,0
1582728001535,2174630,0.0,1,0
1582728001634,2174757,0.0,1,0
1582728001735,2175119,0.0,1,0
1582728001835,2175580,0.0,1,0
1582728001935,2175910,0.0,1,0
1582728002035,2175978,0.0,1,0
1582728002135,2176440,0.0,1,0
1582728002235,2176682,0.0,1,0
1582728002335,2177050,0.0,1,0
1582728002435,2177197,0.0,1,0
1582728002535,2177702,0.0,1,0
1582728002635,2177969,0.0,1,0
1582728002735,2178254,0.0,1,0
1582728002835,2178654,0.0,1,0
1582728002936,2178755,0.0,1,0
1582728003035,2179053,0.0,1,0
1582728003136,2179587,0.0,1,0
1582728003236,2179831,0.0,1,0
1582728003336,2180348,0.0,1,0
1582728003436,2180674,0.0,1,0
1582728003536,2181058,0.0,1,0
1582728003636,2181264,0.0,1,0
1582728003736,2181575,0.0,1,0
1582728003836,2181847,0.0,1,0
1582728003936,2181841,0.0,1,0
1582728004037,2181974,0.0,1,0
1582728004139,2181868,0.0,1,0
1582728004237,2181945,0.0,1,0
1582728004337,2182120,0.0,1,0
1582728004437,2181893,0.0,1,0
1582728004537,2181914,0.0,1,0
1582728004637,2181890,0.0,1,0
1582728004737,2181794,0.0,1,0
1582728004840,2181593,0.0,1,0
1582728004937,2181703,0.0,1,0
1582728005038,2181470,0.0,1,0
1582728005137,2181511,0.0,1,0
1582728005237,2181460,0.0,1,0
1582728005337,2181648,0.0,1,0
1582728005438,2181434,0.0,1,0
1582728005537,2181362,0.0,1,0
1582728005638,2181366,0.0,1,0
1582728005737,2181372,0.0,1,0
1582728005839,2181426,0.0,1,0
1582728005938,2181815,0.0,1,0
1582728006037,2182011,0.0,1,0
1582728006141,2182146,0.0,1,0
1582728006238,2182344,0.0,1,0
1582728006338,2182378,0.0,1,0
1582728006438,2182622,0.0,1,0
1582728006538,2182671,0.0,1,0
1582728006638,2182652,0.0,1,0
1582728006738,2182439,0.0,1,0
1582728006838,2182580,0.0,1,0
1582728006938,2182577,0.0,1,0
1582728007038,2182317,0.0,1,0
1582728007139,2182125,0.0,1,0
1582728007238,2182021,0.0,1,0
1582728007338,2181904,0.0,1,0
1582728007439,2181581,0.0,1,0
1582728007539,2181610,0.0,1,0
1582728007639,2181089,0.0,1,0
1582728007739,2180875,0.0,1,0
1582728007839,2180763,0.0,1,0
1582728007939,2180542,0.0,1,0
1582728008039,2180403,0.0,1,0
1582728008140,2180195,0.0,1,0
1582728008239,2179925,0.0,1,0
1582728008340,2179530,0.0,1,0
1582728008440,2179225,0.0,1,0
1582728008540,2179280,0.0,1,0
1582728008639,2179206,0.0,1,0
1582728008739,2179109,0.0,1,0
1582728008840,2179216,0.0,1,0
1582728008940,2179422,0.0,1,0
1582728009039,2179209,0.0,1,0
1582728009140,2179296,0.0,1,0
1582728009240,2179321,0.0,1,0
1582728009340,2179526,0.0,1,0
1582728009440,2179755,0.0,1,0
1582728009540,2179725,0.0,1,0
1582728009640,2179734,0.0,1,0
1582728009740,2179927,0.0,1,0
1582728009840,2180094,0.0,1,0
1582728009940,2180130,0.0,1,0
1582728010040,2180099,0.0,1,0
1582728010141,2180125,0.0,1,0
1582728010241,2180139,0.0,1,0
1582728010340,2180136,0.0,1,0
1582728010441,2180047,0.0,1,0
1582728010540,2179973,0.0,1,0
1582728010640,2180026,0.0,1,0
1582728010741,2179798,0.0,1,0
1582728010841,2179603,0.0,1,0
1582728010941,2179390,0.0,1,0
1582728011041,2179312,0.0,1,0
1582728011142,2179093,0.0,1,0
1582728011241,2179045,0.0,1,0
1582728011342,2178871,0.0,1,0
1582728011442,2178774,0.0,1,0
1582728011542,2178641,0.0,1,0
1582728011642,2178447,0.0,1,0
1582728011742,2178283,0.0,1,0
1582728011842,2178241,0.0,1,0
1582728011942,2178108,0.0,1,0
1582728012042,2178037,0.0,1,0
1582728012142,2177984,0.0,1,0
1582728012242,2177829,0.0,1,0
1582728012342,2177694,0.0,1,0
1582728012442,2177601,0.0,1,0
1582728012542,2177633,0.0,1,0
1582728012642,2177821,0.0,1,0
1582728012742,2177636,0.0,1,0
1582728012842,2177554,0.0,1,0
1582728012942,2177716,0.0,1,0
1582728013042,2177697,0.0,1,0
1582728013143,2177797,0.0,1,0
1582728013242,2178076,0.0,1,0
1582728013342,2178147,0.0,1,0
1582728013443,2178269,0.0,1,0
1582728013542,2178516,0.0,1,0
1582728013642,2178645,0.0,1,0
1582728013743,2178850,0.0,1,0
1582728013843,2179173,0.0,1,0
1582728013943,2179266,0.0,1,0
1582728014043,2179168,0.0,1,0
1582728014143,2179255,0.0,1,0
1582728014243,2179147,0.0,1,0
1582728014343,2179221,0.0,1,0
1582728014443,2179121,0.0,1,0
1582728014543,2179082,0.0,1,0
1582728014644,2178961,0.0,1,0
1582728014744,2178847,0.0,1,0
1582728014844,2178837,0.0,1,0
1582728014944,2178510,0.0,1,0
1582728015044,2178413,0.0,1,0
1582728015144,2178109,0.0,1,0
1582728015244,2178030,0.0,1,0
1582728015344,2177922,0.0,1,0
1582728015444,2177722,0.0,1,0
1582728015545,2177504,0.0,1,0
1582728015644,2177414,0.0,1,0
1582728015744,2177156,0.0,1,0
1582728015844,2176927,0.0,1,0
1582728015944,2176714,0.0,1,0
1582728016044,2176449,0.0,1,0
1582728016145,2176242,0.0,1,0
1582728016245,2176090,0.0,1,0
1582728016344,2175914,0.0,1,0
1582728016445,2175516,0.0,1,0
1582728016544,2175465,0.0,1,0
1582728016644,2175176,0.0,1,0
1582728016745,2175044,0.0,1,0
1582728016845,2174928,0.0,1,0
1582728016945,2174776,0.0,1,0
1582728017045,2174754,0.0,1,0
1582728017145,2174803,0.0,1,0
1582728017245,2174882,0.0,1,0
1582728017345,2174893,0.0,1,0
1582728017445,2175045,0.0,1,0
1582728017545,2175220,0.0,1,0
1582728017645,2175113,0.0,1,0
1582728017745,2175271,0.0,1,0
1582728017845,2175273,0.0,1,0
1582728017946,2175335,0.0,1,0
1582728018046,2175439,0.0,1,0
1582728018148,2175508,0.0,1,0
1582728018247,2175563,0.0,1,0
1582728018347,2175706,0.0,1,0
1582728018446,2175803,0.0,1,0
1582728018547,2176132,0.0,1,0
1582728018646,2176347,0.0,1,0
1582728018747,2176642,0.0,1,0
1582728018847,2176653,0.0,1,0
1582728018947,2176516,0.0,1,0
1582728019047,2176579,0.0,1,0
1582728019150,2176464,0.0,1,0
1582728019246,2176554,0.0,1,0
1582728019346,2176440,0.0,1,0
1582728019447,2176348,0.0,1,0
1582728019547,2176332,0.0,1,0
1582728019646,2176277,0.0,1,0
1582728019747,2176271,0.0,1,0
1582728019849,2176268,0.0,1,0
1582728019947,2176281,0.0,1,0
1582728020047,2176068,0.0,1,0
1582728020148,2175982,0.0,1,0
1582728020247,2176056,0.0,1,0
1582728020347,2175885,0.0,1,0
1582728020448,2176003,0.0,1,0
1582728020547,2175892,0.0,1,0
1582728020647,2175813,0.0,1,0
1582728020747,2175546,0.0,1,0
1582728020847,2175232,0.0,1,0
1582728020948,2175193,0.0,1,0
1582728021047,2175202,0.0,1,0
1582728021152,2175162,0.0,1,0
1582728021249,2175090,0.0,1,0
1582728021348,2174744,0.0,1,0
1582728021448,2174653,0.0,1,0
1582728021548,2174608,0.0,1,0
1582728021648,2174604,0.0,1,0
1582728021749,2174436,0.0,1,0
1582728021849,2174375,0.0,1,0
1582728021949,2174249,0.0,1,0
1582728022048,2174038,0.0,1,0
1582728022149,2173933,0.0,1,0
1582728022249,2173878,0.0,1,0
1582728022349,2174024,0.0,1,0
1582728022449,2174174,0.0,1,0
1582728022549,2174301,0.0,1,0
1582728022649,2174532,0.0,1,0
1582728022749,2174537,0.0,1,0
1582728022849,2174893,0.0,1,0
1582728022949,2175060,0.0,1,0
1582728023049,2175341,0.0,1,0
1582728023149,2175712,0.0,1,0
1582728023249,2175892,0.0,1,0
1582728023349,2176136,0.0,1,0
1582728023449,2176350,0.0,1,0
1582728023549,2176711,0.0,1,0
1582728023649,2176828,0.0,1,0
1582728023749,2176900,0.0,1,0
1582728023849,2176891,0.0,1,0
1582728023950,2176907,0.0,1,0
1582728024049,2176762,0.0,1,0
1582728024150,2176752,0.0,1,0
1582728024250,2176709,0.0,1,0
1582728024350,2176682,0.0,1,0
1582728024450,2176462,0.0,1,0
1582728024550,2176479,0.0,1,0
1582728024650,2176288,0.0,1,0
1582728024750,2176078,0.0,1,0
1582728024850,2176147,0.0,1,0
1582728024950,2175941,0.0,1,0
1582728025050,2175819,0.0,1,0
1582728025151,2175823,0.0,1,0
1582728025251,2175680,0.0,1,0
1582728025351,2175480,0.0,1,0
1582728025452,2175377,0.0,1,0
1582728025551,2175439,0.0,1,0
1582728025651,2175256,0.0,1,0
1582728025751,2174837,0.0,1,0
1582728025851,2174859,0.0,1,0
1582728025952,2174701,0.0,1,0
1582728026051,2174669,0.0,1,0
1582728026152,2174649,0.0,1,0
1582728026252,2174604,0.0,1,0
1582728026352,2174611,0.0,1,0
1582728026451,2174605,0.0,1,0
1582728026551,2174667,0.0,1,0
1582728026651,2174830,0.0,1,0
1582728026752,2175023,0.0,1,0
1582728026851,2175159,0.0,1,0
1582728026952,2175355,0.0,1,0
1582728027051,2175627,0.0,1,0
1582728027152,2176039,0.0,1,0
1582728027252,2176285,0.0,1,0
1582728027352,2176681,0.0,1,0
1582728027452,2177075,0.0,1,0
1582728027552,2177345,0.0,1,0
1582728027652,2177510,0.0,1,0
1582728027752,2177779,0.0,1,0
1582728027852,2177883,0.0,1,0
1582728027952,2178098,0.0,1,0
1582728028052,2178180,0.0,1,0
1582728028153,2178185,0.0,1,0
1582728028252,2178233,0.0,1,0
1582728028352,2178031,0.0,1,0
1582728028453,2177894,0.0,1,0
1582728028552,2177738,0.0,1,0
1582728028652,2177530,0.0,1,0
1582728028754,2177345,0.0,1,0
1582728028853,2177292,0.0,1,0
1582728028953,2177065,0.0,1,0
1582728029054,2176922,0.0,1,0
1582728029154,2176834,0.0,1,0
1582728029254,2176697,0.0,1,0
1582728029355,2176560,0.0,1,0
1582728029454,2176275,0.0,1,0
1582728029554,2176228,0.0,1,0
1582728029654,2176162,0.0,1,0
1582728029754,2176039,0.0,1,0
1582728029853,2175860,0.0,1,0
1582728029954,2175643,0.0,1,0
1582728030054,2175489,0.0,1,0
1582728030154,2175183,0.0,1,0
1582728030254,2175176,0.0,1,0
1582728030354,2174972,0.0,1,0
1582728030455,2174906,0.0,1,0
1582728030555,2174584,0.0,1,0
1582728030655,2174484,0.0,1,0
1582728030755,2174210,0.0,1,0
1582728030855,2174186,0.0,1,0
1582728030955,2173873,0.0,1,0
1582728031054,2173892,0.0,1,0
1582728031155,2173574,0.0,1,0
1582728031255,2173439,0.0,1,0
1582728031354,2173148,0.0,1,0
1582728031455,2172977,0.0,1,0
1582728031554,2172930,0.0,1,0
1582728031654,2172889,0.0,1,0
1582728031755,2172495,0.0,1,0
1582728031855,2172384,0.0,1,0
1582728031955,2172268,0.0,1,0
1582728032055,2172054,0.0,1,0
1582728032155,2171860,0.0,1,0
1582728032255,2171960,0.0,1,0
1582728032357,2171919,0.0,1,0
1582728032456,2171766,0.0,1,0
1582728032556,2171746,0.0,1,0
1582728032656,2171631,0.0,1,0
1582728032756,2171590,0.0,1,0
1582728032856,2171559,0.0,1,0
1582728032956,2171498,0.0,1,0
1582728033056,2171312,0.0,1,0
1582728033159,2171205,0.0,1,0
1582728033257,2171124,0.0,1,0
1582728033356,2170932,0.0,1,0
1582728033456,2170941,0.0,1,0
1582728033556,2170789,0.0,1,0
1582728033656,2170702,0.0,1,0
1582728033756,2170541,0.0,1,0
1582728033856,2170479,0.0,1,0
1582728033956,2170187,0.0,1,0
1582728034056,2170108,0.0,1,0
1582728034160,2169882,0.0,1,0
1582728034257,2169759,0.0,1,0
1582728034357,2169489,0.0,1,0
1582728034457,2169168,0.0,1,0
1582728034557,2168902,0.0,1,0
1582728034656,2168865,0.0,1,0
1582728034757,2168778,0.0,1,0
1582728034859,2168360,0.0,1,0
1582728034957,2168086,0.0,1,0
1582728035057,2167717,0.0,1,0
1582728035158,2167617,0.0,1,0
1582728035257,2167419,0.0,1,0
1582728035359,2167131,0.0,1,0
1582728035457,2166791,0.0,1,0
1582728035557,2166299,0.0,1,0
1582728035657,2165941,0.0,1,0
1582728035757,2165689,0.0,1,0
1582728035858,2165577,0.0,1,0
1582728035959,2165379,0.0,1,0
1582728036058,2164829,0.0,1,0
1582728036160,2164591,0.0,1,0
1582728036259,2164227,0.0,1,0
1582728036358,2163903,0.0,1,0
1582728036458,2163782,0.0,1,0
1582728036559,2163750,0.0,1,0
1582728036658,2163503,0.0,1,0
1582728036758,2163139,0.0,1,0
1582728036859,2163016,0.0,1,0
1582728036958,2162770,0.0,1,0
1582728037058,2162674,0.0,1,0
1582728037159,2162816,0.0,1,0
1582728037258,2162758,0.0,1,0
1582728037358,2162452,0.0,1,0
1582728037459,2162216,0.0,1,0
1582728037558,2162183,0.0,1,0
1582728037658,2162114,0.0,1,0
1582728037759,2162224,0.0,1,0
1582728037859,2162289,0.0,1,0
1582728037959,2162342,0.0,1,0
1582728038059,2162046,0.0,1,0
1582728038159,2161996,0.0,1,0
1582728038259,2161664,0.0,1,0
1582728038359,2161491,0.0,1,0
1582728038459,2161290,0.0,1,0
1582728038559,2161392,0.0,1,0
1582728038659,2161215,0.0,1,0
1582728038759,2160758,0.0,1,0
1582728038859,2160495,0.0,1,0
1582728038960,2160394,0.0,1,0
1582728039059,2160191,0.0,1,0
1582728039160,2160087,0.0,1,0
1582728039260,2159917,0.0,1,0
1582728039361,2159452,0.0,1,0
1582728039460,2159345,0.0,1,0
1582728039561,2159166,0.0,1,0
1582728039660,2158904,0.0,1,0
1582728039760,2158883,0.0,1,0
1582728039861,2158874,0.0,1,0
1582728039961,2158450,0.0,1,0
1582728040061,2158203,0.0,1,0
1582728040161,2158049,0.0,1,0
1582728040261,2157913,0.0,1,0
1582728040361,2157963,0.0,1,0
1582728040461,2158068,0.0,1,0
1582728040560,2157863,0.0,1,0
1582728040660,2157643,0.0,1,0
1582728040761,2157480,0.0,1,0
1582728040861,2157704,0.0,1,0
1582728040961,2157668,0.0,1,0
1582728041061,2157719,0.0,1,0
1582728041161,2157675,0.0,1,0
1582728041261,2157742,0.0,1,0
1582728041361,2157800,0.0,1,0
1582728041461,2157862,0.0,1,0
1582728041561,2158000,0.0,1,0
1582728041661,2158175,0.0,1,0
1582728041761,2158136,0.0,1,0
1582728041861,2158056,0.0,1,0
1582728041962,2158023,0.0,1,0
1582728042061,2158350,0.0,1,0
1582728042162,2158656,0.0,1,0
1582728042262,2159021,0.0,1,0
1582728042362,2159095,0.0,1,0
1582728042462,2159096,0.0,1,0
1582728042562,2159092,0.0,1,0
1582728042662,2159245,0.0,1,0
1582728042762,2159436,0.0,1,0
1582728042862,2159738,0.0,1,0
1582728042963,2159642,0.0,1,0
1582728043062,2159452,0.0,1,0
1582728043163,2159512,0.0,1,0
1582728043264,2159357,0.0,1,0
1582728043363,2159389,0.0,1,0
1582728043463,2159280,0.0,1,0
1582728043563,2159042,0.0,1,0
1582728043663,2158787,0.0,1,0
1582728043763,2158479,0.0,1,0
1582728043863,2158642,0.0,1,0
1582728043963,2158632,0.0,1,0
1582728044063,2158447,0.0,1,0
1582728044163,2158282,0.0,1,0
1582728044263,2158037,0.0,1,0
1582728044363,2157927,0.0,1,0
1582728044463,2157881,0.0,1,0
1582728044563,2157643,0.0,1,0
1582728044663,2157811,0.0,1,0
1582728044763,2157748,0.0,1,0
1582728044863,2157500,0.0,1,0
1582728044964,2157599,0.0,1,0
1582728045063,2157569,0.0,1,0
1582728045164,2157620,0.0,1,0
1582728045264,2157544,0.0,1,0
1582728045364,2157596,0.0,1,0
1582728045464,2157502,0.0,1,0
1582728045564,2157477,0.0,1,0
1582728045664,2157466,0.0,1,0
1582728045764,2157753,0.0,1,0
1582728045864,2157900,0.0,1,0
1582728045964,2158057,0.0,1,0
1582728046064,2158354,0.0,1,0
1582728046165,2158445,0.0,1,0
1582728046265,2158676,0.0,1,0
1582728046365,2158998,0.0,1,0
1582728046478,2159587,0.0,1,0
1582728046566,2159865,0.0,1,0
1582728046665,2159783,0.0,1,0
1582728046765,2159880,0.0,1,0
1582728046865,2160190,0.0,1,0
1582728046965,2160229,0.0,1,0
1582728047065,2160321,0.0,1,0
1582728047165,2160523,0.0,1,0
1582728047266,2160344,0.0,1,0
1582728047366,2160313,0.0,1,0
1582728047466,2160246,0.0,1,0
1582728047565,2160237,0.0,1,0
1582728047665,2160334,0.0,1,0
1582728047765,2160686,0.0,1,0
1582728047865,2160428,0.0,1,0
1582728047966,2160081,0.0,1,0
1582728048065,2160159,0.0,1,0
1582728048166,2160618,0.0,1,0
1582728048266,2160357,0.0,1,0
1582728048366,2160458,0.0,1,0
1582728048466,2160532,0.0,1,0
1582728048566,2160142,0.0,1,0
1582728048666,2160081,0.0,1,0
1582728048766,2159982,0.0,1,0
1582728048867,2160078,0.0,1,0
1582728048966,2160117,0.0,1,0
1582728049066,2160424,0.0,1,0
1582728049169,2160491,0.0,1,0
1582728049266,2160572,0.0,1,0
1582728049366,2160649,0.0,1,0
1582728049467,2161080,0.0,1,0
1582728049567,2161457,0.0,1,0
1582728049666,2161838,0.0,1,0
1582728049767,2162029,0.0,1,0
1582728049869,2162389,0.0,1,0
1582728049968,2162635,0.0,1,0
1582728050068,2163130,0.0,1,0
1582728050169,2163433,0.0,1,0
1582728050268,2163930,0.0,1,0
1582728050368,2164139,0.0,1,0
1582728050468,2164325,0.0,1,0
1582728050568,2164276,0.0,1,0
1582728050668,2164291,0.0,1,0
1582728050768,2164773,0.0,1,0
1582728050868,2164788,0.0,1,0
1582728050968,2164692,0.0,1,0
1582728051068,2164739,0.0,1,0
1582728051171,2164777,0.0,1,0
1582728051268,2164842,0.0,1,0
1582728051368,2165093,0.0,1,0
1582728051468,2165405,0.0,1,0
1582728051568,2165345,0.0,1,0
1582728051668,2165344,0.0,1,0
1582728051768,2165317,0.0,1,0
1582728051868,2165164,0.0,1,0
1582728051968,2165297,0.0,1,0
1582728052068,2165222,0.0,1,0
1582728052169,2165052,0.0,1,0
1582728052268,2164848,0.0,1,0
1582728052369,2164689,0.0,1,0
1582728052469,2164706,0.0,1,0
1582728052568,2164603,0.0,1,0
1582728052668,2164765,0.0,1,0
1582728052769,2164652,0.0,1,0
1582728052868,2164500,0.0,1,0
1582728052969,2164429,0.0,1,0
1582728053069,2164341,0.0,1,0
1582728053169,2164195,0.0,1,0
1582728053269,2164264,0.0,1,0
1582728053369,2164027,0.0,1,0
1582728053469,2164050,0.0,1,0
1582728053570,2163939,0.0,1,0
1582728053670,2163973,0.0,1,0
1582728053770,2164158,0.0,1,0
1582728053870,2164165,0.0,1,0
1582728053970,2164153,0.0,1,0
1582728054070,2164137,0.0,1,0
1582728054170,2164372,0.0,1,0
1582728054271,2164450,0.0,1,0
1582728054370,2164817,0.0,1,0
1582728054470,2165279,0.0,1,0
1582728054571,2165805,0.0,1,0
1582728054670,2166051,0.0,1,0
1582728054770,2166392,0.0,1,0
1582728054870,2166864,0.0,1,0
1582728054970,2167245,0.0,1,0
1582728055070,2167733,0.0,1,0
1582728055171,2168135,0.0,1,0
1582728055270,2168640,0.0,1,0
1582728055370,2168900,0.0,1,0
1582728055471,2169203,0.0,1,0
1582728055570,2169318,0.0,1,0
1582728055670,2169514,0.0,1,0
1582728055771,2169720,0.0,1,0
1582728055871,2169980,0.0,1,0
1582728055971,2170006,0.0,1,0
1582728056071,2170106,0.0,1,0
1582728056171,2170138,0.0,1,0
1582728056271,2170189,0.0,1,0
1582728056371,2170140,0.0,1,0
1582728056471,2170349,0.0,1,0
1582728056571,2170481,0.0,1,0
1582728056671,2170518,0.0,1,0
1582728056771,2170435,0.0,1,0
1582728056871,2170406,0.0,1,0
1582728056972,2170457,0.0,1,0
1582728057072,2170439,0.0,1,0
1582728057172,2170561,0.0,1,0
1582728057273,2170594,0.0,1,0
1582728057372,2170605,0.0,1,0
1582728057472,2170750,0.0,1,0
1582728057573,2170682,0.0,1,0
1582728057672,2170901,0.0,1,0
1582728057772,2171119,0.0,1,0
1582728057873,2171450,0.0,1,0
1582728057973,2171783,0.0,1,0
1582728058072,2172178,0.0,1,0
1582728058173,2172467,0.0,1,0
1582728058272,2172813,0.0,1,0
1582728058372,2173290,0.0,1,0
1582728058473,2173784,0.0,1,0
1582728058572,2174454,0.0,1,0
1582728058672,2174768,0.0,1,0
1582728058773,2175165,0.0,1,0
1582728058873,2175594,0.0,1,0
1582728058973,2175907,0.0,1,0
1582728059073,2176239,0.0,1,0
1582728059173,2176747,0.0,1,0
1582728059273,2176988,0.0,1,0
1582728059373,2177182,0.0,1,0
1582728059473,2177394,0.0,1,0
1582728059573,2177500,0.0,1,0
1582728059673,2177609,0.0,1,0
1582728059773,2177576,0.0,1,0
1582728059874,2177275,0.0,1,0
1582728059974,2177133,0.0,1,0
1582728060074,2176956,0.0,1,0
1582728060174,2176507,0.0,1,0
1582728060274,2176497,0.0,1,0
1582728060374,2176362,0.0,1,0
1582728060474,2176029,0.0,1,0
1582728060575,2175760,0.0,1,0
1582728060674,2175607,0.0,1,0
1582728060774,2175134,0.0,1,0
1582728060875,2174910,0.0,1,0
1582728060975,2174947,0.0,1,0
1582728061074,2175322,0.0,1,0
1582728061175,2175184,0.0,1,0
1582728061275,2175349,0.0,1,0
1582728061375,2175385,0.0,1,0
1582728061475,2175441,0.0,1,0
1582728061575,2175482,0.0,1,0
1582728061674,2175455,0.0,1,0
1582728061775,2175623,0.0,1,0
1582728061875,2175542,0.0,1,0
1582728061975,2175443,0.0,1,0
1582728062075,2175554,0.0,1,0
1582728062175,2175726,0.0,1,0
1582728062275,2175661,0.0,1,0
1582728062376,2175588,0.0,1,0
1582728062475,2175488,0.0,1,0
1582728062575,2175474,0.0,1,0
1582728062675,2175346,0.0,1,0
1582728062775,2175190,0.0,1,0
1582728062875,2174816,0.0,1,0
1582728062977,2174648,0.0,1,0
1582728063077,2174350,0.0,1,0
1582728063179,2174082,0.0,1,0
1582728063277,2174103,0.0,1,0
1582728063377,2173740,0.0,1,0
1582728063477,2173504,0.0,1,0
1582728063577,2173283,0.0,1,0
1582728063676,2172858,0.0,1,0
1582728063777,2172976,0.0,1,0
1582728063877,2172969,0.0,1,0
1582728063976,2173086,0.0,1,0
1582728064076,2173076,0.0,1,0
1582728064182,2173030,0.0,1,0
1582728064278,2172976,0.0,1,0
1582728064377,2173110,0.0,1,0
1582728064477,2173270,0.0,1,0
1582728064577,2173489,0.0,1,0
1582728064677,2173439,0.0,1,0
1582728064778,2173501,0.0,1,0
1582728064880,2173615,0.0,1,0
1582728064977,2173863,0.0,1,0
1582728065078,2174136,0.0,1,0
1582728065178,2174468,0.0,1,0
1582728065277,2174602,0.0,1,0
1582728065377,2174668,0.0,1,0
1582728065477,2174738,0.0,1,0
1582728065577,2175002,0.0,1,0
1582728065678,2175186,0.0,1,0
1582728065778,2175279,0.0,1,0
1582728065877,2175345,0.0,1,0
1582728065978,2175261,0.0,1,0
1582728066078,2175408,0.0,1,0
1582728066181,2175517,0.0,1,0
1582728066278,2175298,0.0,1,0
1582728066378,2175273,0.0,1,0
1582728066478,2175229,0.0,1,0
1582728066578,2175224,0.0,1,0
1582728066678,2175129,0.0,1,0
1582728066778,2174993,0.0,1,0
1582728066878,2175036,0.0,1,0
1582728066978,2174855,0.0,1,0
1582728067078,2175009,0.0,1,0
1582728067179,2174810,0.0,1,0
1582728067278,2174791,0.0,1,0
1582728067379,2174571,0.0,1,0
1582728067479,2174432,0.0,1,0
1582728067578,2174648,0.0,1,0
1582728067679,2174508,0.0,1,0
1582728067779,2174589,0.0,1,0
1582728067879,2174408,0.0,1,0
1582728067979,2174618,0.0,1,0
1582728068079,2174701,0.0,1,0
1582728068180,2175079,0.0,1,0
1582728068280,2175317,0.0,1,0
1582728068380,2175610,0.0,1,0
1582728068480,2175739,0.0,1,0
1582728068580,2175923,0.0,1,0
1582728068680,2176147,0.0,1,0
1582728068779,2176515,0.0,1,0
1582728068879,2176714,0.0,1,0
1582728068980,2177010,0.0,1,0
1582728069079,2177214,0.0,1,0
1582728069180,2177303,0.0,1,0
1582728069280,2177394,0.0,1,0
1582728069380,2177518,0.0,1,0
1582728069480,2177528,0.0,1,0
1582728069580,2177700,0.0,1,0
1582728069680,2177694,0.0,1,0
1582728069780,2177699,0.0,1,0
1582728069881,2177571,0.0,1,0
1582728069980,2177475,0.0,1,0
1582728070080,2177777,0.0,1,0
1582728070181,2177814,0.0,1,0
1582728070280,2177745,0.0,1,0
1582728070380,2177737,0.0,1,0
1582728070481,2177738,0.0,1,0
1582728070580,2177816,0.0,1,0
1582728070680,2177926,0.0,1,0
1582728070781,2178116,0.0,1,0
1582728070881,2177993,0.0,1,0
1582728070981,2177912,0.0,1,0
1582728071081,2178020,0.0,1,0
1582728071182,2177862,0.0,1,0
1582728071282,2177798,0.0,1,0
1582728071382,2177691,0.0,1,0
1582728071482,2177566,0.0,1,0
1582728071581,2177388,0.0,1,0
1582728071682,2177261,0.0,1,0
1582728071782,2177180,0.0,1,0
1582728071882,2177043,0.0,1,0
1582728071982,2176877,0.0,1,0
1582728072082,2176797,0.0,1,0
1582728072182,2176640,0.0,1,0
1582728072282,2176355,0.0,1,0
1582728072382,2176240,0.0,1,0
1582728072482,2176093,0.0,1,0
1582728072582,2175945,0.0,1,0
1582728072682,2175927,0.0,1,0
1582728072782,2175850,0.0,1,0
1582728072882,2175758,0.0,1,0
1582728072982,2175656,0.0,1,0
1582728073082,2175499,0.0,1,0
1582728073183,2175633,0.0,1,0
1582728073282,2175752,0.0,1,0
1582728073382,2175834,0.0,1,0
1582728073483,2175818,0.0,1,0
1582728073582,2175890,0.0,1,0
1582728073682,2176076,0.0,1,0
1582728073784,2176237,0.0,1,0
1582728073883,2176520,0.0,1,0
1582728073983,2176681,0.0,1,0
1582728074083,2176857,0.0,1,0
1582728074183,2177092,0.0,1,0
1582728074283,2177365,0.0,1,0
1582728074383,2177577,0.0,1,0
1582728074483,2177589,0.0,1,0
1582728074583,2177767,0.0,1,0
1582728074683,2177878,0.0,1,0
1582728074784,2177815,0.0,1,0
1582728074884,2177757,0.0,1,0
1582728074985,2177857,0.0,1,0
1582728075084,2177604,0.0,1,0
1582728075184,2177460,0.0,1,0
1582728075285,2177452,0.0,1,0
1582728075384,2177453,0.0,1,0
1582728075484,2177310,0.0,1,0
1582728075585,2177307,0.0,1,0
1582728075684,2177099,0.0,1,0
1582728075784,2177004,0.0,1,0
1582728075884,2176811,0.0,1,0
1582728075984,2176763,0.0,1,0
1582728076084,2176581,0.0,1,0
1582728076185,2176386,0.0,1,0
1582728076285,2176291,0.0,1,0
1582728076384,2176078,0.0,1,0
1582728076485,2175945,0.0,1,0
1582728076584,2175749,0.0,1,0
1582728076684,2175717,0.0,1,0
1582728076785,2175409,0.0,1,0
1582728076885,2175140,0.0,1,0
1582728076985,2175169,0.0,1,0
1582728077085,2175160,0.0,1,0
1582728077185,2174875,0.0,1,0
1582728077285,2174796,0.0,1,0
1582728077385,2174618,0.0,1,0
1582728077485,2174633,0.0,1,0
1582728077585,2174683,0.0,1,0
1582728077685,2174608,0.0,1,0
1582728077785,2174751,0.0,1,0
1582728077885,2174757,0.0,1,0
1582728077986,2174856,0.0,1,0
1582728078085,2174936,0.0,1,0
1582728078186,2174964,0.0,1,0
1582728078287,2175005,0.0,1,0
1582728078386,2175003,0.0,1,0
1582728078486,2174994,0.0,1,0
1582728078587,2174851,0.0,1,0
1582728078687,2174809,0.0,1,0
1582728078787,2174637,0.0,1,0
1582728078887,2174656,0.0,1,0
1582728078987,2174337,0.0,1,0
1582728079087,2174204,0.0,1,0
1582728079190,2174020,0.0,1,0
1582728079287,2173758,0.0,1,0
1582728079387,2173382,0.0,1,0
1582728079487,2173098,0.0,1,0
1582728079586,2173041,0.0,1,0
1582728079687,2172698,0.0,1,0
1582728079787,2172375,0.0,1,0
1582728079889,2172010,0.0,1,0
1582728079987,2171727,0.0,1,0
1582728080087,2171434,0.0,1,0
1582728080188,2171057,0.0,1,0
1582728080287,2170442,0.0,1,0
1582728080388,2170091,0.0,1,0
1582728080487,2169879,0.0,1,0
1582728080587,2169521,0.0,1,0
1582728080688,2169386,0.0,1,0
1582728080787,2169436,0.0,1,0
1582728080887,2169440,0.0,1,0
1582728080988,2169476,0.0,1,0
1582728081087,2169655,0.0,1,0
1582728081190,2169873,0.0,1,0
1582728081288,2169984,0.0,1,0
1582728081388,2170176,0.0,1,0
1582728081488,2170303,0.0,1,0
1582728081588,2170516,0.0,1,0
1582728081688,2170671,0.0,1,0
1582728081789,2170960,0.0,1,0
1582728081889,2171219,0.0,1,0
1582728081989,2171409,0.0,1,0
1582728082088,2171422,0.0,1,0
1582728082189,2171297,0.0,1,0
1582728082289,2171239,0.0,1,0
1582728082389,2171075,0.0,1,0
1582728082489,2170814,0.0,1,0
1582728082589,2170765,0.0,1,0
1582728082689,2170816,0.0,1,0
1582728082789,2170322,0.0,1,0
1582728082889,2170273,0.0,1,0
1582728082989,2169895,0.0,1,0
1582728083089,2169545,0.0,1,0
1582728083189,2169656,0.0,1,0
1582728083289,2169474,0.0,1,0
1582728083389,2169331,0.0,1,0
1582728083489,2169228,0.0,1,0
1582728083589,2169112,0.0,1,0
1582728083689,2168868,0.0,1,0
1582728083789,2168795,0.0,1,0
1582728083889,2168524,0.0,1,0
1582728083990,2168252,0.0,1,0
1582728084089,2168083,0.0,1,0
1582728084190,2167874,0.0,1,0
1582728084290,2167838,0.0,1,0
1582728084390,2167861,0.0,1,0
1582728084490,2167592,0.0,1,0
1582728084590,2167228,0.0,1,0
1582728084690,2167087,0.0,1,0
1582728084790,2166871,0.0,1,0
1582728084891,2166628,0.0,1,0
1582728084991,2166580,0.0,1,0
1582728085090,2166377,0.0,1,0
1582728085191,2166036,0.0,1,0
1582728085290,2165925,0.0,1,0
1582728085391,2165662,0.0,1,0
1582728085491,2165416,0.0,1,0
1582728085591,2165292,0.0,1,0
1582728085691,2165129,0.0,1,0
1582728085791,2164648,0.0,1,0
1582728085891,2164511,0.0,1,0
1582728085992,2164226,0.0,1,0
1582728086092,2164281,0.0,1,0
1582728086192,2164090,0.0,1,0
1582728086292,2164186,0.0,1,0
1582728086392,2163903,0.0,1,0
1582728086491,2163630,0.0,1,0
1582728086591,2163616,0.0,1,0
1582728086691,2163634,0.0,1,0
1582728086791,2163696,0.0,1,0
1582728086891,2164029,0.0,1,0
1582728086992,2164191,0.0,1,0
1582728087091,2164055,0.0,1,0
1582728087192,2164110,0.0,1,0
1582728087292,2164332,0.0,1,0
1582728087392,2164459,0.0,1,0
1582728087492,2164624,0.0,1,0
1582728087592,2164819,0.0,1,0
1582728087692,2164748,0.0,1,0
1582728087792,2164853,0.0,1,0
1582728087892,2164964,0.0,1,0
1582728087992,2164980,0.0,1,0
1582728088092,2165212,0.0,1,0
1582728088193,2165518,0.0,1,0
1582728088292,2165398,0.0,1,0
1582728088392,2165400,0.0,1,0
1582728088493,2165468,0.0,1,0
1582728088592,2165467,0.0,1,0
1582728088692,2165594,0.0,1,0
1582728088793,2165886,0.0,1,0
1582728088894,2166040,0.0,1,0
1582728088993,2165724,0.0,1,0
1582728089094,2165958,0.0,1,0
1582728089194,2166063,0.0,1,0
1582728089294,2166075,0.0,1,0
1582728089394,2166319,0.0,1,0
1582728089494,2166316,0.0,1,0
1582728089594,2166337,0.0,1,0
1582728089694,2166293,0.0,1,0
1582728089794,2166288,0.0,1,0
1582728089894,2166280,0.0,1,0
1582728089994,2166512,0.0,1,0
1582728090094,2166647,0.0,1,0
1582728090194,2166447,0.0,1,0
1582728090294,2166358,0.0,1,0
1582728090394,2166328,0.0,1,0
1582728090494,2166345,0.0,1,0
1582728090594,2166496,0.0,1,0
1582728090694,2166708,0.0,1,0
1582728090794,2166402,0.0,1,0
1582728090894,2166222,0.0,1,0
1582728090994,2166369,0.0,1,0
1582728091094,2166361,0.0,1,0
1582728091195,2166500,0.0,1,0
1582728091295,2166524,0.0,1,0
1582728091394,2166417,0.0,1,0
1582728091495,2166345,0.0,1,0
1582728091594,2166648,0.0,1,0
1582728091695,2166747,0.0,1,0
1582728091795,2166667,0.0,1,0
1582728091895,2166702,0.0,1,0
1582728091995,2166744,0.0,1,0
1582728092095,2166623,0.0,1,0
1582728092195,2166279,0.0,1,0
1582728092295,2166263,0.0,1,0
1582728092397,2166202,0.0,1,0
1582728092496,2166145,0.0,1,0
1582728092596,2166149,0.0,1,0
1582728092696,2165854,0.0,1,0
1582728092796,2165544,0.0,1,0
1582728092896,2165404,0.0,1,0
1582728092996,2165339,0.0,1,0
1582728093096,2165373,0.0,1,0
1582728093199,2165462,0.0,1,0
1582728093297,2165148,0.0,1,0
1582728093396,2165115,0.0,1,0
1582728093496,2165018,0.0,1,0
1582728093596,2164937,0.0,1,0
1582728093697,2165108,0.0,1,0
1582728093796,2164919,0.0,1,0
1582728093897,2164518,0.0,1,0
1582728093996,2164446,0.0,1,0
1582728094096,2164227,0.0,1,0
1582728094200,2163964,0.0,1,0
1582728094297,2163890,0.0,1,0
1582728094397,2163771,0.0,1,0
1582728094497,2163447,0.0,1,0
1582728094597,2163162,0.0,1,0
1582728094697,2163157,0.0,1,0
1582728094797,2163016,0.0,1,0
1582728094899,2163183,0.0,1,0
1582728094997,2162905,0.0,1,0
1582728095098,2162518,0.0,1,0
1582728095198,2162210,0.0,1,0
1582728095297,2162027,0.0,1,0
1582728095397,2161939,0.0,1,0
1582728095498,2161808,0.0,1,0
1582728095597,2161772,0.0,1,0
1582728095698,2161377,0.0,1,0
1582728095797,2161002,0.0,1,0
1582728095899,2160862,0.0,1,0
1582728096000,2160865,0.0,1,0
1582728096099,2160888,0.0,1,0
1582728096201,2160921,0.0,1,0
1582728096299,2160628,0.0,1,0
1582728096399,2160321,0.0,1,0
1582728096499,2160138,0.0,1,0
1582728096599,2160144,0.0,1,0
1582728096699,2160211,0.0,1,0
1582728096799,2160520,0.0,1,0
1582728096899,2160463,0.0,1,0
1582728096999,2160362,0.0,1,0
1582728097098,2160529,0.0,1,0
1582728097199,2160597,0.0,1,0
1582728097298,2161043,0.0,1,0
1582728097398,2161519,0.0,1,0
1582728097498,2161885,0.0,1,0
1582728097598,2162130,0.0,1,0
1582728097698,2162262,0.0,1,0
1582728097799,2162570,0.0,1,0
1582728097899,2163025,0.0,1,0
1582728097999,2163528,0.0,1,0
1582728098099,2163886,0.0,1,0
1582728098199,2164246,0.0,1,0
1582728098299,2164266,0.0,1,0
1582728098399,2164453,0.0,1,0
1582728098499,2164517,0.0,1,0
1582728098599,2164777,0.0,1,0
1582728098699,2164993,0.0,1,0
1582728098799,2164924,0.0,1,0
1582728098899,2165031,0.0,1,0
1582728099000,2165080,0.0,1,0
1582728099099,2164948,0.0,1,0
1582728099200,2165042,0.0,1,0
1582728099300,2164939,0.0,1,0
1582728099400,2165164,0.0,1,0
1582728099501,2165221,0.0,1,0
1582728099601,2165071,0.0,1,0
1582728099700,2165118,0.0,1,0
1582728099800,2165109,0.0,1,0
1582728099901,2165198,0.0,1,0
1582728100001,2165238,0.0,1,0
1582728100101,2165407,0.0,1,0
1582728100201,2165369,0.0,1,0
1582728100301,2165522,0.0,1,0
1582728100401,2165602,0.0,1,0
1582728100501,2165714,0.0,1,0
1582728100600,2165706,0.0,1,0
1582728100700,2166085,0.0,1,0
1582728100801,2166212,0.0,1,0
1582728100901,2166427,0.0,1,0
1582728101001,2166703,0.0,1,0
1582728101101,2166967,0.0,1,0
1582728101201,2167208,0.0,1,0
1582728101301,2167671,0.0,1,0
1582728101401,2167916,0.0,1,0
1582728101501,2168387,0.0,1,0
1582728101601,2168359,0.0,1,0
1582728101701,2168772,0.0,1,0
1582728101801,2169090,0.0,1,0
1582728101901,2169478,0.0,1,0
1582728102002,2169704,0.0,1,0
1582728102101,2170124,0.0,1,0
1582728102202,2170453,0.0,1,0
1582728102302,2170775,0.0,1,0
1582728102402,2171038,0.0,1,0
1582728102502,2171272,0.0,1,0
1582728102602,2171325,0.0,1,0
1582728102702,2171183,0.0,1,0
1582728102802,2171249,0.0,1,0
1582728102902,2171319,0.0,1,0
1582728103003,2171418,0.0,1,0
1582728103103,2171551,0.0,1,0
1582728103203,2171314,0.0,1,0
1582728103303,2171461,0.0,1,0
1582728103403,2171397,0.0,1,0
1582728103503,2171217,0.0,1,0
1582728103603,2171178,0.0,1,0
1582728103703,2170996,0.0,1,0
1582728103803,2170855,0.0,1,0
1582728103903,2170506,0.0,1,0
1582728104003,2170325,0.0,1,0
1582728104103,2170018,0.0,1,0
1582728104204,2169943,0.0,1,0
1582728104303,2169743,0.0,1,0
1582728104403,2169463,0.0,1,0
1582728104503,2169178,0.0,1,0
1582728104603,2168816,0.0,1,0
1582728104703,2168870,0.0,1,0
1582728104803,2168462,0.0,1,0
1582728104904,2168245,0.0,1,0
1582728105004,2168087,0.0,1,0
1582728105104,2167866,0.0,1,0
1582728105204,2167610,0.0,1,0
1582728105305,2167332,0.0,1,0
1582728105404,2167261,0.0,1,0
1582728105504,2167461,0.0,1,0
1582728105604,2167275,0.0,1,0
1582728105704,2167168,0.0,1,0
1582728105804,2167185,0.0,1,0
1582728105904,2167184,0.0,1,0
1582728106004,2167357,0.0,1,0
1582728106104,2167556,0.0,1,0
1582728106209,2167708,0.0,1,0
1582728106305,2167960,0.0,1,0
1582728106405,2168129,0.0,1,0
1582728106505,2168450,0.0,1,0
1582728106606,2168730,0.0,1,0
1582728106705,2169100,0.0,1,0
1582728106805,2169679,0.0,1,0
1582728106905,2169915,0.0,1,0
1582728107005,2170102,0.0,1,0
1582728107106,2170074,0.0,1,0
1582728107206,2170304,0.0,1,0
1582728107306,2170364,0.0,1,0
1582728107406,2170288,0.0,1,0
1582728107506,2170269,0.0,1,0
1582728107606,2170304,0.0,1,0
1582728107705,2170366,0.0,1,0
1582728107805,2170243,0.0,1,0
1582728107906,2170225,0.0,1,0
1582728108006,2170039,0.0,1,0
1582728108105,2170295,0.0,1,0
1582728108206,2170112,0.0,1,0
1582728108306,2170081,0.0,1,0
1582728108406,2170013,0.0,1,0
1582728108506,2169723,0.0,1,0
1582728108606,2169706,0.0,1,0
1582728108706,2169627,0.0,1,0
1582728108806,2169718,0.0,1,0
1582728108907,2169566,0.0,1,0
1582728109006,2169184,0.0,1,0
1582728109106,2169144,0.0,1,0
1582728109210,2169073,0.0,1,0
1582728109306,2169093,0.0,1,0
1582728109406,2169324,0.0,1,0
1582728109506,2169431,0.0,1,0
1582728109607,2169965,0.0,1,0
1582728109707,2170245,0.0,1,0
1582728109807,2170704,0.0,1,0
1582728109909,2171118,0.0,1,0
1582728110007,2171458,0.0,1,0
1582728110108,2172041,0.0,1,0
1582728110209,2172575,0.0,1,0
1582728110308,2173089,0.0,1,0
1582728110408,2173657,0.0,1,0
1582728110508,2173960,0.0,1,0
1582728110608,2174664,0.0,1,0
1582728110708,2174820,0.0,1,0
1582728110808,2175161,0.0,1,0
1582728110908,2175371,0.0,1,0
1582728111008,2175500,0.0,1,0
1582728111108,2175392,0.0,1,0
1582728111211,2175616,0.0,1,0
1582728111308,2175553,0.0,1,0
1582728111408,2175586,0.0,1,0
1582728111508,2175477,0.0,1,0
1582728111608,2175437,0.0,1,0
1582728111708,2175228,0.0,1,0
1582728111808,2175136,0.0,1,0
1582728111908,2175105,0.0,1,0
1582728112008,2174810,0.0,1,0
1582728112108,2174578,0.0,1,0
1582728112210,2174470,0.0,1,0
1582728112309,2174373,0.0,1,0
1582728112409,2174176,0.0,1,0
1582728112509,2174410,0.0,1,0
1582728112608,2174138,0.0,1,0
1582728112708,2174038,0.0,1,0
1582728112809,2173864,0.0,1,0
1582728112909,2174004,0.0,1,0
1582728113009,2173863,0.0,1,0
1582728113109,2174008,0.0,1,0
1582728113209,2174042,0.0,1,0
1582728113309,2173805,0.0,1,0
1582728113409,2174086,0.0,1,0
1582728113509,2174132,0.0,1,0
1582728113610,2174499,0.0,1,0
1582728113710,2174698,0.0,1,0
1582728113810,2174860,0.0,1,0
1582728113910,2175166,0.0,1,0
1582728114010,2175453,0.0,1,0
1582728114110,2175718,0.0,1,0
1582728114210,2176127,0.0,1,0
1582728114311,2176561,0.0,1,0
1582728114410,2176879,0.0,1,0
1582728114510,2177255,0.0,1,0
1582728114611,2177323,0.0,1,0
1582728114710,2177596,0.0,1,0
1582728114810,2177636,0.0,1,0
1582728114911,2177693,0.0,1,0
1582728115010,2177753,0.0,1,0
1582728115110,2177591,0.0,1,0
1582728115211,2177524,0.0,1,0
1582728115310,2177361,0.0,1,0
1582728115410,2177095,0.0,1,0
1582728115510,2177103,0.0,1,0
1582728115610,2177083,0.0,1,0
1582728115710,2176954,0.0,1,0
1582728115811,2176786,0.0,1,0
1582728115911,2176648,0.0,1,0
1582728116011,2176553,0.0,1,0
1582728116111,2176442,0.0,1,0
1582728116215,2176232,0.0,1,0
1582728116311,2176053,0.0,1,0
1582728116411,2175859,0.0,1,0
1582728116511,2175734,0.0,1,0
1582728116611,2175502,0.0,1,0
1582728116711,2175419,0.0,1,0
1582728116811,2175414,0.0,1,0
1582728116911,2175267,0.0,1,0
1582728117012,2174960,0.0,1,0
1582728117111,2174944,0.0,1,0
1582728117213,2174862,0.0,1,0
1582728117313,2174971,0.0,1,0
1582728117412,2175051,0.0,1,0
1582728117512,2175237,0.0,1,0
1582728117613,2175565,0.0,1,0
1582728117712,2176014,0.0,1,0
1582728117812,2176220,0.0,1,0
1582728117913,2176576,0.0,1,0
1582728118013,2177011,0.0,1,0
1582728118112,2177603,0.0,1,0
1582728118213,2177885,0.0,1,0
1582728118312,2178086,0.0,1,0
1582728118412,2178387,0.0,1,0
1582728118513,2178719,0.0,1,0
1582728118612,2179013,0.0,1,0
1582728118712,2179429,0.0,1,0
1582728118813,2179753,0.0,1,0
1582728118913,2179938,0.0,1,0
1582728119013,2179982,0.0,1,0
1582728119113,2179996,0.0,1,0
1582728119213,2180083,0.0,1,0
1582728119313,2180090,0.0,1,0
1582728119413,2180083,0.0,1,0
1582728119513,2179948,0.0,1,0
1582728119613,2179689,0.0,1,0
1582728119713,2179569,0.0,1,0
1582728119813,2179466,0.0,1,0
1582728119914,2179412,0.0,1,0
1582728120014,2179150,0.0,1,0
1582728120114,2178859,0.0,1,0
1582728120213,2178632,0.0,1,0
1582728120314,2178350,0.0,1,0
1582728120414,2178067,0.0,1,0
1582728120514,2177669,0.0,1,0
1582728120614,2177586,0.0,1,0
1582728120715,2177018,0.0,1,0
1582728120814,2176707,0.0,1,0
1582728120915,2176456,0.0,1,0
1582728121015,2176156,0.0,1,0
1582728121114,2175961,0.0,1,0
1582728121215,2175781,0.0,1,0
1582728121315,2175470,0.0,1,0
1582728121415,2175218,0.0,1,0
1582728121515,2174950,0.0,1,0
1582728121615,2174961,0.0,1,0
1582728121715,2174819,0.0,1,0
1582728121815,2174778,0.0,1,0
1582728121915,2174655,0.0,1,0
1582728122015,2174434,0.0,1,0
1582728122115,2174394,0.0,1,0
1582728122215,2174369,0.0,1,0
1582728122315,2174394,0.0,1,0
1582728122416,2174564,0.0,1,0
1582728122515,2174510,0.0,1,0
1582728122615,2174362,0.0,1,0
1582728122715,2174183,0.0,1,0
1582728122815,2174047,0.0,1,0
1582728122915,2174152,0.0,1,0
1582728123016,2174312,0.0,1,0
1582728123115,2173967,0.0,1,0
1582728123216,2173811,0.0,1,0
1582728123316,2173550,0.0,1,0
1582728123416,2173537,0.0,1,0
1582728123516,2173493,0.0,1,0
1582728123616,2173664,0.0,1,0
1582728123716,2173588,0.0,1,0
1582728123816,2173314,0.0,1,0
1582728123917,2173256,0.0,1,0
1582728124016,2173237,0.0,1,0
1582728124116,2173106,0.0,1,0
1582728124218,2173175,0.0,1,0
1582728124317,2173118,0.0,1,0
1582728124418,2173004,0.0,1,0
1582728124518,2172997,0.0,1,0
1582728124617,2172900,0.0,1,0
1582728124717,2173079,0.0,1,0
1582728124818,2173314,0.0,1,0
1582728124919,2173344,0.0,1,0
1582728125017,2173162,0.0,1,0
1582728125118,2173096,0.0,1,0
1582728125220,2173065,0.0,1,0
1582728125317,2173203,0.0,1,0
1582728125418,2173203,0.0,1,0
1582728125518,2173266,0.0,1,0
1582728125617,2173319,0.0,1,0
1582728125718,2173179,0.0,1,0
1582728125817,2173250,0.0,1,0
1582728125917,2173269,0.0,1,0
1582728126018,2173112,0.0,1,0
1582728126118,2173206,0.0,1,0
1582728126218,2173027,0.0,1,0
1582728126319,2172838,0.0,1,0
1582728126418,2172716,0.0,1,0
1582728126518,2172736,0.0,1,0
1582728126618,2172552,0.0,1,0
1582728126718,2172542,0.0,1,0
1582728126818,2172351,0.0,1,0
1582728126918,2172203,0.0,1,0
1582728127018,2172034,0.0,1,0
1582728127118,2171938,0.0,1,0
1582728127219,2171811,0.0,1,0
1582728127319,2171710,0.0,1,0
1582728127419,2171435,0.0,1,0
1582728127518,2171175,0.0,1,0
1582728127619,2171047,0.0,1,0
1582728127719,2170992,0.0,1,0
1582728127820,2170876,0.0,1,0
1582728127919,2170930,0.0,1,0
1582728128019,2170747,0.0,1,0
1582728128120,2170591,0.0,1,0
1582728128220,2170584,0.0,1,0
1582728128320,2170537,0.0,1,0
1582728128420,2170739,0.0,1,0
1582728128520,2171023,0.0,1,0
1582728128621,2171390,0.0,1,0
1582728128721,2171449,0.0,1,0
1582728128821,2171700,0.0,1,0
1582728128920,2171852,0.0,1,0
1582728129020,2172296,0.0,1,0
1582728129120,2172674,0.0,1,0
1582728129220,2172934,0.0,1,0
1582728129320,2172933,0.0,1,0
1582728129420,2172983,0.0,1,0
1582728129520,2173264,0.0,1,0
1582728129620,2173384,0.0,1,0
1582728129720,2173847,0.0,1,0
1582728129820,2173980,0.0,1,0
1582728129921,2174014,0.0,1,0
1582728130020,2174176,0.0,1,0
1582728130120,2174132,0.0,1,0
1582728130221,2174406,0.0,1,0
1582728130320,2174392,0.0,1,0
1582728130420,2174532,0.0,1,0
1582728130521,2174626,0.0,1,0
1582728130620,2174595,0.0,1,0
1582728130720,2174382,0.0,1,0
1582728130821,2174308,0.0,1,0
1582728130921,2174153,0.0,1,0
1582728131021,2174327,0.0,1,0
1582728131121,2174045,0.0,1,0
1582728131221,2173907,0.0,1,0
1582728131322,2173614,0.0,1,0
1582728131422,2173340,0.0,1,0
1582728131522,2173053,0.0,1,0
1582728131622,2172973,0.0,1,0
1582728131722,2172890,0.0,1,0
1582728131822,2172514,0.0,1,0
1582728131922,2172076,0.0,1,0
1582728132022,2171995,0.0,1,0
1582728132122,2171682,0.0,1,0
1582728132222,2171658,0.0,1,0
1582728132323,2171649,0.0,1,0
1582728132422,2171223,0.0,1,0
1582728132522,2171016,0.0,1,0
1582728132622,2170737,0.0,1,0
1582728132722,2170718,0.0,1,0
1582728132822,2170455,0.0,1,0
1582728132922,2170584,0.0,1,0
1582728133022,2170451,0.0,1,0
1582728133122,2170225,0.0,1,0
1582728133223,2170136,0.0,1,0
1582728133322,2170105,0.0,1,0
1582728133422,2169930,0.0,1,0
1582728133522,2170091,0.0,1,0
1582728133622,2169883,0.0,1,0
1582728133722,2169773,0.0,1,0
1582728133823,2169792,0.0,1,0
1582728133923,2170059,0.0,1,0
1582728134023,2170233,0.0,1,0
1582728134123,2170558,0.0,1,0
1582728134223,2170822,0.0,1,0
1582728134323,2170975,0.0,1,0
1582728134423,2171269,0.0,1,0
1582728134523,2171446,0.0,1,0
1582728134623,2171476,0.0,1,0
1582728134723,2171884,0.0,1,0
1582728134824,2172083,0.0,1,0
1582728134924,2172257,0.0,1,0
1582728135024,2172224,0.0,1,0
1582728135124,2172306,0.0,1,0
1582728135224,2172707,0.0,1,0
1582728135325,2172982,0.0,1,0
1582728135424,2173397,0.0,1,0
1582728135524,2173481,0.0,1,0
1582728135625,2173376,0.0,1,0
1582728135724,2173629,0.0,1,0
1582728135824,2173574,0.0,1,0
1582728135924,2173717,0.0,1,0
1582728136025,2173894,0.0,1,0
1582728136124,2173825,0.0,1,0
1582728136238,2173712,0.0,1,0
1582728136325,2173647,0.0,1,0
1582728136425,2173359,0.0,1,0
1582728136525,2173377,0.0,1,0
1582728136624,2173297,0.0,1,0
1582728136725,2173195,0.0,1,0
1582728136825,2172942,0.0,1,0
1582728136925,2172805,0.0,1,0
1582728137025,2172580,0.0,1,0
1582728137125,2172355,0.0,1,0
1582728137225,2172351,0.0,1,0
1582728137326,2172126,0.0,1,0
1582728137425,2171934,0.0,1,0
1582728137525,2171556,0.0,1,0
1582728137625,2171599,0.0,1,0
1582728137726,2171413,0.0,1,0
1582728137825,2171215,0.0,1,0
1582728137925,2171107,0.0,1,0
1582728138026,2170857,0.0,1,0
1582728138125,2170684,0.0,1,0
1582728138229,2170620,0.0,1,0
1582728138326,2170719,0.0,1,0
1582728138427,2170657,0.0,1,0
1582728138526,2170694,0.0,1,0
1582728138627,2170535,0.0,1,0
1582728138727,2170279,0.0,1,0
1582728138827,2170396,0.0,1,0
1582728138927,2170580,0.0,1,0
1582728139027,2170857,0.0,1,0
1582728139127,2171042,0.0,1,0
1582728139230,2171031,0.0,1,0
1582728139327,2171275,0.0,1,0
1582728139427,2171375,0.0,1,0
1582728139527,2171561,0.0,1,0
1582728139627,2171797,0.0,1,0
1582728139727,2172263,0.0,1,0
1582728139827,2172410,0.0,1,0
1582728139929,2172594,0.0,1,0
1582728140027,2172833,0.0,1,0
1582728140127,2172990,0.0,1,0
1582728140228,2173264,0.0,1,0
1582728140328,2173502,0.0,1,0
1582728140428,2173497,0.0,1,0
1582728140528,2173437,0.0,1,0
1582728140627,2173387,0.0,1,0
1582728140728,2173405,0.0,1,0
1582728140827,2173320,0.0,1,0
1582728140927,2173291,0.0,1,0
1582728141028,2173342,0.0,1,0
1582728141128,2173189,0.0,1,0
1582728141228,2173055,0.0,1,0
1582728141329,2172881,0.0,1,0
1582728141428,2172805,0.0,1,0
1582728141528,2172891,0.0,1,0
1582728141628,2172882,0.0,1,0
1582728141728,2172673,0.0,1,0
1582728141828,2172689,0.0,1,0
1582728141929,2172718,0.0,1,0
1582728142029,2172775,0.0,1,0
1582728142129,2173079,0.0,1,0
1582728142229,2173305,0.0,1,0
1582728142329,2173597,0.0,1,0
1582728142429,2173804,0.0,1,0
1582728142529,2174079,0.0,1,0
1582728142630,2174427,0.0,1,0
1582728142729,2174733,0.0,1,0
1582728142829,2175195,0.0,1,0
1582728142930,2175426,0.0,1,0
1582728143029,2175518,0.0,1,0
1582728143129,2175906,0.0,1,0
1582728143229,2176191,0.0,1,0
1582728143329,2176429,0.0,1,0
1582728143429,2176738,0.0,1,0
1582728143529,2176937,0.0,1,0
1582728143629,2177375,0.0,1,0
1582728143729,2177545,0.0,1,0
1582728143829,2177992,0.0,1,0
1582728143929,2178257,0.0,1,0
1582728144030,2178553,0.0,1,0
1582728144129,2178540,0.0,1,0
1582728144230,2178614,0.0,1,0
1582728144330,2178772,0.0,1,0
1582728144430,2178591,0.0,1,0
1582728144530,2178492,0.0,1,0
1582728144630,2178373,0.0,1,0
1582728144730,2178384,0.0,1,0
1582728144830,2178163,0.0,1,0
1582728144931,2178169,0.0,1,0
1582728145030,2177987,0.0,1,0
1582728145130,2177853,0.0,1,0
1582728145231,2177661,0.0,1,0
1582728145331,2177437,0.0,1,0
1582728145431,2177238,0.0,1,0
1582728145531,2177016,0.0,1,0
1582728145631,2176855,0.0,1,0
1582728145731,2176957,0.0,1,0
1582728145831,2177152,0.0,1,0
1582728145931,2177160,0.0,1,0
1582728146032,2177118,0.0,1,0
1582728146132,2177007,0.0,1,0
1582728146232,2177132,0.0,1,0
1582728146332,2177190,0.0,1,0
1582728146432,2177421,0.0,1,0
1582728146531,2177526,0.0,1,0
1582728146631,2177670,0.0,1,0
1582728146732,2177541,0.0,1,0
1582728146831,2177553,0.0,1,0
1582728146931,2177564,0.0,1,0
1582728147032,2177614,0.0,1,0
1582728147131,2177732,0.0,1,0
1582728147232,2177600,0.0,1,0
1582728147333,2177776,0.0,1,0
1582728147432,2177736,0.0,1,0
1582728147532,2177769,0.0,1,0
1582728147632,2177894,0.0,1,0
1582728147732,2178055,0.0,1,0
1582728147832,2178202,0.0,1,0
1582728147932,2178247,0.0,1,0
1582728148032,2178147,0.0,1,0
1582728148132,2178058,0.0,1,0
1582728148233,2178029,0.0,1,0
1582728148332,2177934,0.0,1,0
1582728148432,2177677,0.0,1,0
1582728148533,2177604,0.0,1,0
1582728148632,2177191,0.0,1,0
1582728148733,2177157,0.0,1,0
1582728148833,2176945,0.0,1,0
1582728148933,2176821,0.0,1,0
1582728149034,2176751,0.0,1,0
1582728149134,2176477,0.0,1,0
1582728149234,2176364,0.0,1,0
1582728149334,2175975,0.0,1,0
1582728149434,2175853,0.0,1,0
1582728149534,2175791,0.0,1,0
1582728149634,2175687,0.0,1,0
1582728149734,2175276,0.0,1,0
1582728149834,2175052,0.0,1,0
1582728149934,2174969,0.0,1,0
1582728150034,2174863,0.0,1,0
1582728150134,2174918,0.0,1,0
1582728150234,2174602,0.0,1,0
1582728150334,2174381,0.0,1,0
1582728150434,2174445,0.0,1,0
1582728150534,2174267,0.0,1,0
1582728150636,2174200,0.0,1,0
1582728150734,2174269,0.0,1,0
1582728150834,2174251,0.0,1,0
1582728150934,2173830,0.0,1,0
1582728151034,2173818,0.0,1,0
1582728151134,2173499,0.0,1,0
1582728151235,2173663,0.0,1,0
1582728151335,2173855,0.0,1,0
1582728151434,2174241,0.0,1,0
1582728151534,2174202,0.0,1,0
1582728151634,2174390,0.0,1,0
1582728151735,2174436,0.0,1,0
1582728151835,2174777,0.0,1,0
1582728151935,2175110,0.0,1,0
1582728152035,2175488,0.0,1,0
1582728152135,2175604,0.0,1,0
1582728152235,2175612,0.0,1,0
1582728152335,2175925,0.0,1,0
1582728152435,2176230,0.0,1,0
1582728152536,2176482,0.0,1,0
1582728152636,2176698,0.0,1,0
1582728152736,2177007,0.0,1,0
1582728152836,2177219,0.0,1,0
1582728152936,2177253,0.0,1,0
1582728153036,2177441,0.0,1,0
1582728153136,2177618,0.0,1,0
1582728153239,2178002,0.0,1,0
1582728153337,2178264,0.0,1,0
1582728153436,2178615,0.0,1,0
1582728153536,2178733,0.0,1,0
1582728153636,2178739,0.0,1,0
1582728153736,2178792,0.0,1,0
1582728153836,2178906,0.0,1,0
1582728153937,2178820,0.0,1,0
1582728154036,2178779,0.0,1,0
1582728154136,2178567,0.0,1,0
1582728154241,2178463,0.0,1,0
1582728154337,2178310,0.0,1,0
1582728154436,2178089,0.0,1,0
1582728154537,2177936,0.0,1,0
1582728154637,2177774,0.0,1,0
1582728154737,2177526,0.0,1,0
1582728154837,2177270,0.0,1,0
1582728154939,2177079,0.0,1,0
1582728155037,2177156,0.0,1,0
1582728155137,2177059,0.0,1,0
1582728155238,2176810,0.0,1,0
1582728155337,2176574,0.0,1,0
1582728155437,2176351,0.0,1,0
1582728155538,2176249,0.0,1,0
1582728155637,2176158,0.0,1,0
1582728155738,2176053,0.0,1,0
1582728155837,2175786,0.0,1,0
1582728155937,2175500,0.0,1,0
1582728156039,2175411,0.0,1,0
1582728156138,2175219,0.0,1,0
1582728156238,2175119,0.0,1,0
1582728156339,2174885,0.0,1,0
1582728156438,2174614,0.0,1,0
1582728156538,2174157,0.0,1,0
1582728156639,2174096,0.0,1,0
1582728156739,2174066,0.0,1,0
1582728156838,2174241,0.0,1,0
1582728156939,2174362,0.0,1,0
1582728157039,2174171,0.0,1,0
1582728157138,2174491,0.0,1,0
1582728157239,2174514,0.0,1,0
1582728157339,2174817,0.0,1,0
1582728157439,2175070,0.0,1,0
1582728157539,2175210,0.0,1,0
1582728157639,2175218,0.0,1,0
1582728157739,2175355,0.0,1,0
1582728157839,2175228,0.0,1,0
1582728157939,2175163,0.0,1,0
1582728158039,2175034,0.0,1,0
1582728158139,2174802,0.0,1,0
1582728158239,2174488,0.0,1,0
1582728158340,2174233,0.0,1,0
1582728158439,2173899,0.0,1,0
1582728158539,2173138,0.0,1,0
1582728158639,2172484,0.0,1,0
1582728158740,2172377,0.0,1,0
1582728158840,2172184,0.0,1,0
1582728158940,2171908,0.0,1,0
1582728159040,2171567,0.0,1,0
1582728159139,2171425,0.0,1,0
1582728159240,2171439,0.0,1,0
1582728159340,2171613,0.0,1,0
1582728159440,2171671,0.0,1,0
1582728159540,2171438,0.0,1,0
1582728159641,2171137,0.0,1,0
1582728159741,2170920,0.0,1,0
1582728159840,2170971,0.0,1,0
1582728159941,2170892,0.0,1,0
1582728160041,2171055,0.0,1,0
1582728160141,2170810,0.0,1,0
1582728160241,2170826,0.0,1,0
1582728160341,2170803,0.0,1,0
1582728160441,2170704,0.0,1,0
1582728160541,2170849,0.0,1,0
1582728160641,2170461,0.0,1,0
1582728160741,2170421,0.0,1,0
1582728160842,2170508,0.0,1,0
1582728160942,2170185,0.0,1,0
1582728161042,2170288,0.0,1,0
1582728161142,2170163,0.0,1,0
1582728161242,2170255,0.0,1,0
1582728161342,2170136,0.0,1,0
1582728161442,2169776,0.0,1,0
1582728161542,2169596,0.0,1,0
1582728161641,2170240,0.0,1,0
1582728161742,2170337,0.0,1,0
1582728161842,2170410,0.0,1,0
1582728161941,2170730,0.0,1,0
1582728162042,2170798,0.0,1,0
1582728162142,2171055,0.0,1,0
1582728162242,2171117,0.0,1,0
1582728162342,2171059,0.0,1,0
1582728162442,2170976,0.0,1,0
1582728162542,2171231,0.0,1,0
1582728162642,2171157,0.0,1,0
1582728162742,2171243,0.0,1,0
1582728162842,2171249,0.0,1,0
1582728162942,2171069,0.0,1,0
1582728163042,2170786,0.0,1,0
1582728163143,2170822,0.0,1,0
1582728163243,2170845,0.0,1,0
1582728163343,2170744,0.0,1,0
1582728163443,2170691,0.0,1,0
1582728163543,2170640,0.0,1,0
1582728163643,2170476,0.0,1,0
1582728163743,2170457,0.0,1,0
1582728163844,2170715,0.0,1,0
1582728163943,2171287,0.0,1,0
1582728164043,2171662,0.0,1,0
1582728164144,2171683,0.0,1,0
1582728164243,2171917,0.0,1,0
1582728164343,2172384,0.0,1,0
1582728164443,2172709,0.0,1,0
1582728164543,2173221,0.0,1,0
1582728164643,2173536,0.0,1,0
1582728164744,2173858,0.0,1,0
1582728164843,2174173,0.0,1,0
1582728164944,2174487,0.0,1,0
1582728165044,2174854,0.0,1,0
1582728165144,2175348,0.0,1,0
1582728165244,2175577,0.0,1,0
1582728165344,2175647,0.0,1,0
1582728165444,2175932,0.0,1,0
1582728165544,2176250,0.0,1,0
1582728165644,2176409,0.0,1,0
1582728165744,2176774,0.0,1,0
1582728165844,2177119,0.0,1,0
1582728165944,2177272,0.0,1,0
1582728166045,2177585,0.0,1,0
1582728166144,2177815,0.0,1,0
1582728166245,2178049,0.0,1,0
1582728166345,2178226,0.0,1,0
1582728166444,2178346,0.0,1,0
1582728166545,2178142,0.0,1,0
1582728166646,2178037,0.0,1,0
1582728166745,2177925,0.0,1,0
1582728166845,2177871,0.0,1,0
1582728166945,2177690,0.0,1,0
1582728167045,2177541,0.0,1,0
1582728167146,2177410,0.0,1,0
1582728167246,2177330,0.0,1,0
1582728167346,2177039,0.0,1,0
1582728167446,2177001,0.0,1,0
1582728167546,2177115,0.0,1,0
1582728167646,2177038,0.0,1,0
1582728167746,2176973,0.0,1,0
1582728167845,2177083,0.0,1,0
1582728167945,2177140,0.0,1,0
1582728168046,2177437,0.0,1,0
1582728168145,2177691,0.0,1,0
1582728168249,2177770,0.0,1,0
1582728168346,2177710,0.0,1,0
1582728168446,2177691,0.0,1,0
1582728168546,2177913,0.0,1,0
1582728168646,2178035,0.0,1,0
1582728168746,2178181,0.0,1,0
1582728168846,2178392,0.0,1,0
1582728168947,2178273,0.0,1,0
1582728169046,2178313,0.0,1,0
1582728169146,2178442,0.0,1,0
1582728169249,2178475,0.0,1,0
1582728169348,2178800,0.0,1,0
1582728169447,2178652,0.0,1,0
1582728169547,2178252,0.0,1,0
1582728169647,2178054,0.0,1,0
1582728169747,2177762,0.0,1,0
1582728169847,2177543,0.0,1,0
1582728169950,2177347,0.0,1,0
1582728170047,2176930,0.0,1,0
1582728170147,2176471,0.0,1,0
1582728170248,2176093,0.0,1,0
1582728170348,2175829,0.0,1,0
1582728170448,2175719,0.0,1,0
1582728170548,2175602,0.0,1,0
1582728170648,2175569,0.0,1,0
1582728170748,2175244,0.0,1,0
1582728170848,2175157,0.0,1,0
1582728170948,2175072,0.0,1,0
1582728171048,2175188,0.0,1,0
1582728171148,2175456,0.0,1,0
1582728171248,2175385,0.0,1,0
1582728171348,2175330,0.0,1,0
1582728171448,2175206,0.0,1,0
1582728171548,2175417,0.0,1,0
1582728171648,2175534,0.0,1,0
1582728171748,2175736,0.0,1,0
1582728171848,2175660,0.0,1,0
1582728171948,2175521,0.0,1,0
1582728172048,2175279,0.0,1,0
1582728172148,2174926,0.0,1,0
1582728172249,2174927,0.0,1,0
1582728172349,2174926,0.0,1,0
1582728172448,2174674,0.0,1,0
1582728172549,2174663,0.0,1,0
1582728172649,2174193,0.0,1,0
1582728172749,2174049,0.0,1,0
1582728172849,2173875,0.0,1,0
1582728172949,2173911,0.0,1,0
1582728173049,2174050,0.0,1,0
1582728173149,2173714,0.0,1,0
1582728173249,2173598,0.0,1,0
1582728173349,2173518,0.0,1,0
1582728173449,2173490,0.0,1,0
1582728173549,2173404,0.0,1,0
1582728173649,2173527,0.0,1,0
1582728173751,2173288,0.0,1,0
1582728173850,2173427,0.0,1,0
1582728173950,2173353,0.0,1,0
1582728174050,2173039,0.0,1,0
1582728174150,2172805,0.0,1,0
1582728174250,2172875,0.0,1,0
1582728174351,2172656,0.0,1,0
1582728174450,2172531,0.0,1,0
1582728174550,2172370,0.0,1,0
1582728174651,2172052,0.0,1,0
1582728174750,2172085,0.0,1,0
1582728174850,2172192,0.0,1,0
1582728174951,2171930,0.0,1,0
1582728175050,2171796,0.0,1,0
1582728175150,2171518,0.0,1,0
1582728175251,2171517,0.0,1,0
1582728175351,2171590,0.0,1,0
1582728175450,2171596,0.0,1,0
1582728175551,2171462,0.0,1,0
1582728175650,2171151,0.0,1,0
1582728175751,2170929,0.0,1,0
1582728175851,2170879,0.0,1,0
1582728175951,2170832,0.0,1,0
1582728176051,2170942,0.0,1,0
1582728176151,2170617,0.0,1,0
1582728176251,2170534,0.0,1,0
1582728176351,2170543,0.0,1,0
1582728176451,2170376,0.0,1,0
1582728176551,2170491,0.0,1,0
1582728176651,2170726,0.0,1,0
1582728176752,2170708,0.0,1,0
1582728176851,2170752,0.0,1,0
1582728176951,2170667,0.0,1,0
1582728177052,2170824,0.0,1,0
1582728177151,2170954,0.0,1,0
1582728177253,2171221,0.0,1,0
1582728177353,2171547,0.0,1,0
1582728177452,2171684,0.0,1,0
1582728177552,2172079,0.0,1,0
1582728177653,2172280,0.0,1,0
1582728177752,2172733,0.0,1,0
1582728177852,2173178,0.0,1,0
1582728177953,2173508,0.0,1,0
1582728178053,2174129,0.0,1,0
1582728178153,2174754,0.0,1,0
1582728178253,2175248,0.0,1,0
1582728178353,2175665,0.0,1,0
1582728178452,2176178,0.0,1,0
1582728178553,2176810,0.0,1,0
1582728178653,2177237,0.0,1,0
1582728178753,2177946,0.0,1,0
1582728178853,2178277,0.0,1,0
1582728178953,2178433,0.0,1,0
1582728179053,2178844,0.0,1,0
1582728179153,2178916,0.0,1,0
1582728179253,2179073,0.0,1,0
1582728179354,2179250,0.0,1,0
1582728179454,2179345,0.0,1,0
1582728179553,2179319,0.0,1,0
1582728179653,2179343,0.0,1,0
1582728179754,2179076,0.0,1,0
1582728179853,2179042,0.0,1,0
1582728179954,2178907,0.0,1,0
1582728180054,2178857,0.0,1,0
1582728180154,2178653,0.0,1,0
1582728180254,2178642,0.0,1,0
1582728180354,2178367,0.0,1,0
1582728180454,2178287,0.0,1,0
1582728180554,2178086,0.0,1,0
1582728180654,2178129,0.0,1,0
1582728180754,2178172,0.0,1,0
1582728180855,2178396,0.0,1,0
1582728180955,2178458,0.0,1,0
1582728181055,2178580,0.0,1,0
1582728181155,2178920,0.0,1,0
1582728181255,2179316,0.0,1,0
1582728181355,2179547,0.0,1,0
1582728181455,2179780,0.0,1,0
1582728181555,2180287,0.0,1,0
1582728181655,2180618,0.0,1,0
1582728181755,2181050,0.0,1,0
1582728181855,2181290,0.0,1,0
1582728181955,2181391,0.0,1,0
1582728182055,2181632,0.0,1,0
1582728182155,2181876,0.0,1,0
1582728182255,2182059,0.0,1,0
1582728182355,2182397,0.0,1,0
1582728182455,2182403,0.0,1,0
1582728182555,2182694,0.0,1,0
1582728182655,2182694,0.0,1,0
1582728182756,2182992,0.0,1,0
1582728182855,2183227,0.0,1,0
1582728182955,2183593,0.0,1,0
1582728183056,2183542,0.0,1,0
1582728183155,2183418,0.0,1,0
1582728183256,2183482,0.0,1,0
1582728183356,2183300,0.0,1,0
1582728183456,2183115,0.0,1,0
1582728183556,2183116,0.0,1,0
1582728183656,2182604,0.0,1,0
1582728183756,2182205,0.0,1,0
1582728183856,2181789,0.0,1,0
1582728183957,2181556,0.0,1,0
1582728184056,2181200,0.0,1,0
1582728184156,2180676,0.0,1,0
1582728184260,2180362,0.0,1,0
1582728184358,2179969,0.0,1,0
1582728184457,2179680,0.0,1,0
1582728184557,2179447,0.0,1,0
1582728184657,2179183,0.0,1,0
1582728184757,2178942,0.0,1,0
1582728184858,2178549,0.0,1,0
1582728184960,2178325,0.0,1,0
1582728185058,2177953,0.0,1,0
1582728185158,2177929,0.0,1,0
1582728185258,2177691,0.0,1,0
1582728185358,2177621,0.0,1,0
1582728185458,2177421,0.0,1,0
1582728185558,2177128,0.0,1,0
1582728185657,2176992,0.0,1,0
1582728185758,2176939,0.0,1,0
1582728185857,2177131,0.0,1,0
1582728185957,2177185,0.0,1,0
1582728186058,2176938,0.0,1,0
1582728186158,2176847,0.0,1,0
1582728186258,2176760,0.0,1,0
1582728186358,2176918,0.0,1,0
1582728186458,2176970,0.0,1,0
1582728186558,2177001,0.0,1,0
1582728186658,2176940,0.0,1,0
1582728186759,2176841,0.0,1,0
1582728186858,2176707,0.0,1,0
1582728186958,2176962,0.0,1,0
1582728187058,2176977,0.0,1,0
1582728187158,2177117,0.0,1,0
1582728187259,2177045,0.0,1,0
1582728187359,2176981,0.0,1,0
1582728187459,2177053,0.0,1,0
1582728187559,2177208,0.0,1,0
1582728187659,2177275,0.0,1,0
1582728187759,2177474,0.0,1,0
1582728187860,2177562,0.0,1,0
1582728187959,2177468,0.0,1,0
1582728188059,2177614,0.0,1,0
1582728188160,2177662,0.0,1,0
1582728188260,2177599,0.0,1,0
1582728188360,2177742,0.0,1,0
1582728188460,2177818,0.0,1,0
1582728188560,2177771,0.0,1,0
1582728188660,2177752,0.0,1,0
1582728188760,2177664,0.0,1,0
1582728188860,2177597,0.0,1,0
1582728188959,2177616,0.0,1,0
1582728189061,2177671,0.0,1,0
1582728189159,2177525,0.0,1,0
1582728189260,2177459,0.0,1,0
1582728189360,2177512,0.0,1,0
1582728189462,2177324,0.0,1,0
1582728189560,2177348,0.0,1,0
1582728189660,2177385,0.0,1,0
1582728189760,2177064,0.0,1,0
1582728189860,2176702,0.0,1,0
1582728189961,2176552,0.0,1,0
1582728190060,2176433,0.0,1,0
1582728190160,2176226,0.0,1,0
1582728190261,2176076,0.0,1,0
1582728190361,2175946,0.0,1,0
1582728190461,2175501,0.0,1,0
1582728190561,2175398,0.0,1,0
1582728190661,2175115,0.0,1,0
1582728190761,2174882,0.0,1,0
1582728190861,2174725,0.0,1,0
1582728190961,2174408,0.0,1,0
1582728191061,2174000,0.0,1,0
1582728191161,2173598,0.0,1,0
1582728191261,2173427,0.0,1,0
1582728191361,2173303,0.0,1,0
1582728191462,2173243,0.0,1,0
1582728191562,2172795,0.0,1,0
1582728191662,2172372,0.0,1,0
1582728191762,2172355,0.0,1,0
1582728191862,2172017,0.0,1,0
1582728191962,2172038,0.0,1,0
1582728192062,2172084,0.0,1,0
1582728192162,2172137,0.0,1,0
1582728192262,2171843,0.0,1,0
1582728192363,2171520,0.0,1,0
1582728192462,2171538,0.0,1,0
1582728192562,2171563,0.0,1,0
1582728192662,2171698,0.0,1,0
1582728192762,2171845,0.0,1,0
1582728192862,2171643,0.0,1,0
1582728192962,2171408,0.0,1,0
1582728193062,2171381,0.0,1,0
1582728193162,2171320,0.0,1,0
1582728193263,2171349,0.0,1,0
1582728193364,2171579,0.0,1,0
1582728193464,2171821,0.0,1,0
1582728193564,2171523,0.0,1,0
1582728193664,2171427,0.0,1,0
1582728193763,2171151,0.0,1,0
1582728193864,2171094,0.0,1,0
1582728193964,2170897,0.0,1,0
1582728194063,2171020,0.0,1,0
1582728194164,2170911,0.0,1,0
1582728194264,2170390,0.0,1,0
1582728194363,2170101,0.0,1,0
1582728194463,2169933,0.0,1,0
1582728194563,2169903,0.0,1,0
1582728194663,2169873,0.0,1,0
1582728194764,2169827,0.0,1,0
1582728194863,2169432,0.0,1,0
1582728194965,2169335,0.0,1,0
1582728195064,2169100,0.0,1,0
1582728195164,2169123,0.0,1,0
1582728195264,2169064,0.0,1,0
1582728195365,2169188,0.0,1,0
1582728195464,2169081,0.0,1,0
1582728195564,2168909,0.0,1,0
1582728195665,2168862,0.0,1,0
1582728195764,2168806,0.0,1,0
1582728195864,2168897,0.0,1,0
1582728195965,2169226,0.0,1,0
1582728196065,2169157,0.0,1,0
1582728196164,2169260,0.0,1,0
1582728196265,2169152,0.0,1,0
1582728196365,2169320,0.0,1,0
1582728196464,2169503,0.0,1,0
1582728196565,2169615,0.0,1,0
1582728196665,2169883,0.0,1,0
1582728196765,2169954,0.0,1,0
1582728196865,2169921,0.0,1,0
1582728196965,2170046,0.0,1,0
1582728197065,2170309,0.0,1,0
1582728197165,2170454,0.0,1,0
1582728197265,2170823,0.0,1,0
1582728197365,2171051,0.0,1,0
1582728197465,2170997,0.0,1,0
1582728197565,2171042,0.0,1,0
1582728197665,2171247,0.0,1,0
1582728197766,2171227,0.0,1,0
1582728197865,2171268,0.0,1,0
1582728197965,2171348,0.0,1,0
1582728198066,2171180,0.0,1,0
1582728198165,2170866,0.0,1,0
1582728198268,2170708,0.0,1,0
1582728198367,2170712,0.0,1,0
1582728198467,2170677,0.0,1,0
1582728198566,2170710,0.0,1,0
1582728198667,2170688,0.0,1,0
1582728198767,2170405,0.0,1,0
1582728198867,2170079,0.0,1,0
1582728198967,2170068,0.0,1,0
1582728199067,2169815,0.0,1,0
1582728199167,2169851,0.0,1,0
1582728199270,2169634,0.0,1,0
1582728199367,2169438,0.0,1,0
1582728199467,2169340,0.0,1,0
1582728199567,2169188,0.0,1,0
1582728199667,2169124,0.0,1,0
1582728199767,2169066,0.0,1,0
1582728199867,2169083,0.0,1,0
1582728199971,2168776,0.0,1,0
1582728200068,2168474,0.0,1,0
1582728200167,2168464,0.0,1,0
1582728200268,2168447,0.0,1,0
1582728200368,2168350,0.0,1,0
1582728200468,2168119,0.0,1,0
1582728200568,2168023,0.0,1,0
1582728200667,2167871,0.0,1,0
1582728200768,2167889,0.0,1,0
1582728200868,2167944,0.0,1,0
1582728200968,2167983,0.0,1,0
1582728201068,2167793,0.0,1,0
1582728201168,2167739,0.0,1,0
1582728201268,2167815,0.0,1,0
1582728201368,2168215,0.0,1,0
1582728201468,2168523,0.0,1,0
1582728201568,2169134,0.0,1,0
1582728201668,2169313,0.0,1,0
1582728201768,2169673,0.0,1,0
1582728201868,2170096,0.0,1,0
1582728201968,2170629,0.0,1,0
1582728202069,2170993,0.0,1,0
1582728202169,2171593,0.0,1,0
1582728202269,2171867,0.0,1,0
1582728202369,2172011,0.0,1,0
1582728202469,2172363,0.0,1,0
1582728202569,2172880,0.0,1,0
1582728202669,2173426,0.0,1,0
1582728202769,2173777,0.0,1,0
1582728202870,2173930,0.0,1,0
1582728202969,2174086,0.0,1,0
1582728203069,2174226,0.0,1,0
1582728203169,2174394,0.0,1,0
1582728203269,2174394,0.0,1,0
1582728203369,2174648,0.0,1,0
1582728203469,2174576,0.0,1,0
1582728203569,2174390,0.0,1,0
1582728203669,2174410,0.0,1,0
1582728203770,2174212,0.0,1,0
1582728203870,2174303,0.0,1,0
1582728203969,2174216,0.0,1,0
1582728204070,2174215,0.0,1,0
1582728204169,2174072,0.0,1,0
1582728204270,2173986,0.0,1,0
1582728204370,2173933,0.0,1,0
1582728204470,2173736,0.0,1,0
1582728204570,2173961,0.0,1,0
1582728204670,2174139,0.0,1,0
1582728204770,2173847,0.0,1,0
1582728204870,2173793,0.0,1,0
1582728204971,2173797,0.0,1,0
1582728205070,2173943,0.0,1,0
1582728205170,2174139,0.0,1,0
1582728205271,2174329,0.0,1,0
1582728205371,2174217,0.0,1,0
1582728205470,2174044,0.0,1,0
1582728205572,2174113,0.0,1,0
1582728205671,2174180,0.0,1,0
1582728205771,2174065,0.0,1,0
1582728205872,2174297,0.0,1,0
1582728205971,2174194,0.0,1,0
1582728206072,2174185,0.0,1,0
1582728206172,2174126,0.0,1,0
1582728206272,2174319,0.0,1,0
1582728206372,2174447,0.0,1,0
1582728206472,2174568,0.0,1,0
1582728206572,2174948,0.0,1,0
1582728206671,2175334,0.0,1,0
1582728206772,2175764,0.0,1,0
1582728206871,2176113,0.0,1,0
1582728206971,2176585,0.0,1,0
1582728207072,2177127,0.0,1,0
1582728207171,2177609,0.0,1,0
1582728207272,2178241,0.0,1,0
1582728207372,2178575,0.0,1,0
1582728207472,2178822,0.0,1,0
1582728207572,2179293,0.0,1,0
1582728207672,2179699,0.0,1,0
1582728207772,2180203,0.0,1,0
1582728207872,2180633,0.0,1,0
1582728207972,2180957,0.0,1,0
1582728208072,2181102,0.0,1,0
1582728208172,2181406,0.0,1,0
1582728208273,2181560,0.0,1,0
1582728208373,2182137,0.0,1,0
1582728208473,2182402,0.0,1,0
1582728208573,2182538,0.0,1,0
1582728208673,2182683,0.0,1,0
1582728208773,2182652,0.0,1,0
1582728208873,2182766,0.0,1,0
1582728208973,2182809,0.0,1,0
1582728209074,2182697,0.0,1,0
1582728209174,2182578,0.0,1,0
1582728209274,2182602,0.0,1,0
1582728209374,2182325,0.0,1,0
1582728209474,2182229,0.0,1,0
1582728209574,2182089,0.0,1,0
1582728209674,2182016,0.0,1,0
1582728209774,2181818,0.0,1,0
1582728209874,2181450,0.0,1,0
1582728209974,2181258,0.0,1,0
1582728210075,2181278,0.0,1,0
1582728210174,2181250,0.0,1,0
1582728210274,2181078,0.0,1,0
1582728210374,2180914,0.0,1,0
1582728210474,2180575,0.0,1,0
1582728210574,2180381,0.0,1,0
1582728210674,2180191,0.0,1,0
1582728210774,2179928,0.0,1,0
1582728210874,2179913,0.0,1,0
1582728210974,2179575,0.0,1,0
1582728211074,2179215,0.0,1,0
1582728211174,2178844,0.0,1,0
1582728211275,2178546,0.0,1,0
1582728211376,2178274,0.0,1,0
1582728211474,2178169,0.0,1,0
1582728211575,2177830,0.0,1,0
1582728211675,2177390,0.0,1,0
1582728211774,2177028,0.0,1,0
1582728211875,2176733,0.0,1,0
1582728211975,2176448,0.0,1,0
1582728212075,2176371,0.0,1,0
1582728212175,2176026,0.0,1,0
1582728212275,2175638,0.0,1,0
1582728212375,2175310,0.0,1,0
1582728212476,2175108,0.0,1,0
1582728212575,2174961,0.0,1,0
1582728212676,2174891,0.0,1,0
1582728212776,2174760,0.0,1,0
1582728212876,2174419,0.0,1,0
1582728212976,2174223,0.0,1,0
1582728213076,2174012,0.0,1,0
1582728213176,2173999,0.0,1,0
1582728213279,2174111,0.0,1,0
1582728213377,2174395,0.0,1,0
1582728213477,2174395,0.0,1,0
1582728213576,2174055,0.0,1,0
1582728213677,2174102,0.0,1,0
1582728213777,2174109,0.0,1,0
1582728213876,2174268,0.0,1,0
1582728213977,2174434,0.0,1,0
1582728214076,2174611,0.0,1,0
1582728214176,2174212,0.0,1,0
1582728214280,2174155,0.0,1,0
1582728214377,2174047,0.0,1,0
1582728214477,2174061,0.0,1,0
1582728214577,2174084,0.0,1,0
1582728214677,2173994,0.0,1,0
1582728214777,2173875,0.0,1,0
1582728214877,2173549,0.0,1,0
1582728214979,2173286,0.0,1,0
1582728215077,2173179,0.0,1,0
1582728215177,2173029,0.0,1,0
1582728215278,2173056,0.0,1,0
1582728215377,2172703,0.0,1,0
1582728215477,2172312,0.0,1,0
1582728215578,2172060,0.0,1,0
1582728215677,2171890,0.0,1,0
1582728215778,2171685,0.0,1,0
1582728215878,2171695,0.0,1,0
1582728215977,2171717,0.0,1,0
1582728216078,2171167,0.0,1,0
1582728216179,2171062,0.0,1,0
1582728216278,2170887,0.0,1,0
1582728216379,2170860,0.0,1,0
1582728216478,2170916,0.0,1,0
1582728216578,2170650,0.0,1,0
1582728216679,2170618,0.0,1,0
1582728216779,2170200,0.0,1,0
1582728216879,2170230,0.0,1,0
1582728216979,2170271,0.0,1,0
1582728217079,2170503,0.0,1,0
1582728217179,2170403,0.0,1,0
1582728217279,2170345,0.0,1,0
1582728217379,2170275,0.0,1,0
1582728217478,2170281,0.0,1,0
1582728217579,2170518,0.0,1,0
1582728217679,2170908,0.0,1,0
1582728217779,2171340,0.0,1,0
1582728217879,2171357,0.0,1,0
1582728217979,2171441,0.0,1,0
1582728218079,2171550,0.0,1,0
1582728218179,2171805,0.0,1,0
1582728218279,2172084,0.0,1,0
1582728218379,2172697,0.0,1,0
1582728218479,2172912,0.0,1,0
1582728218579,2172939,0.0,1,0
1582728218679,2173168,0.0,1,0
1582728218780,2173347,0.0,1,0
1582728218880,2173412,0.0,1,0
1582728218979,2173693,0.0,1,0
1582728219080,2173622,0.0,1,0
1582728219180,2173474,0.0,1,0
1582728219280,2173547,0.0,1,0
1582728219380,2173449,0.0,1,0
1582728219480,2173372,0.0,1,0
1582728219580,2173530,0.0,1,0
1582728219681,2173393,0.0,1,0
1582728219781,2173276,0.0,1,0
1582728219881,2173176,0.0,1,0
1582728219981,2173077,0.0,1,0
1582728220081,2173130,0.0,0,0
1582728220181,2172990,0.0,0,0
1582728220282,2172831,0.0,0,0
1582728220381,2172504,0.0,0,0
1582728220481,2172466,0.0,0,0
1582728220581,2172476,0.0,0,0
1582728220681,2172457,0.0,0,0
1582728220781,2172400,0.0,0,0
1582728220881,2172502,0.0,0,0
1582728220981,2172322,0.0,0,0
1582728221081,2172271,0.0,0,0
1582728221181,2172302,0.0,0,0
1582728221281,2172152,0.0,0,0
1582728221381,2172506,0.0,0,0
1582728221481,2172325,0.0,0,0
1582728221581,2172033,0.0,0,0
1582728221681,2171720,0.0,0,0
1582728221782,2171432,0.0,0,0
1582728221882,2171270,0.0,0,0
1582728221981,2171189,0.0,0,0
1582728222082,2170952,0.0,0,0
1582728222182,2170568,0.0,0,0
1582728222282,2170058,0.0,0,0
1582728222382,2169916,0.0,0,0
1582728222482,2169690,0.0,0,0
1582728222582,2169494,0.0,0,0
1582728222682,2168982,0.0,0,0
1582728222782,2168704,0.0,0,0
1582728222882,2168118,0.0,0,0
1582728222982,2167885,0.0,0,0
1582728223082,2168015,0.0,0,0
1582728223182,2167910,0.0,0,0
1582728223284,2168254,0.0,0,0
1582728223383,2167803,0.0,0,0
1582728223483,2167734,0.0,0,0
1582728223583,2167912,0.0,0,0
1582728223683,2168131,0.0,0,0
1582728223783,2168495,0.0,0,0
1582728223884,2168870,0.0,0,0
1582728223983,2169042,0.0,0,0
1582728224083,2169154,0.0,0,0
1582728224184,2169392,0.0,0,0
1582728224284,2169826,0.0,0,0
1582728224383,2170283,0.0,0,0
1582728224483,2170980,0.0,0,0
1582728224583,2171448,0.0,0,0
1582728224683,2171693,0.0,0,0
1582728224784,2171663,0.0,0,0
1582728224884,2172136,0.0,0,0
1582728224984,2172544,0.0,0,0
1582728225084,2172780,0.0,0,0
1582728225184,2172479,0.0,0,0
1582728225284,2172884,0.0,0,0
1582728225384,2173286,0.0,0,0
1582728225484,2173182,0.0,0,0
1582728225585,2172695,0.0,0,0
1582728225686,2171046,0.0,0,0
1582728225785,2170992,0.0,0,0
1582728225885,2170626,0.0,0,0
1582728225985,2170677,0.0,0,0
1582728226085,2170537,0.0,0,0
1582728226185,2170208,0.0,0,0
1582728226286,2170170,0.0,0,0
1582728226385,2170346,0.0,0,0
1582728226485,2170487,0.0,0,0
1582728226585,2170982,0.0,0,0
1582728226685,2170101,0.0,0,0
1582728226787,2169542,0.0,0,0
1582728226886,2170345,0.0,0,0
1582728226986,2173161,0.0,0,0
1582728227086,2174316,0.0,0,0
1582728227186,2175459,0.0,0,0
1582728227288,2174692,0.0,0,0
1582728227386,2174958,0.0,0,0
1582728227489,2172405,0.0,0,0
1582728227587,2172225,0.0,0,0
1582728227686,2172234,0.0,0,0
1582728227788,2172174,0.0,0,0
1582728227887,2172390,0.0,0,0
1582728227987,2172695,0.0,0,0
1582728228087,2173131,0.0,0,0
1582728228187,2172943,0.0,0,0
1582728228293,2173029,0.0,0,0
1582728228388,2173073,0.0,0,0
1582728228487,2172725,0.0,0,0
1582728228587,2172343,0.0,0,0
1582728228688,2172420,0.0,0,0
1582728228788,2172957,0.0,0,0
1582728228888,2173525,0.0,0,0
1582728228989,2172463,0.0,0,0
1582728229088,2172884,0.0,0,0
1582728229188,2174969,0.0,0,0
1582728229289,2174586,0.0,0,0
1582728229390,2174246,0.0,0,0
1582728229489,2174875,0.0,0,0
1582728229589,2176278,0.0,0,0
1582728229689,2177381,0.0,0,0
1582728229789,2178300,0.0,0,0
1582728229889,2179270,0.0,0,0
1582728229989,2179899,0.0,0,0
1582728230088,2180198,0.0,0,0
1582728230189,2180607,0.0,0,0
1582728230290,2180679,0.0,0,0
1582728230390,2180785,0.0,0,0
1582728230489,2180717,0.0,0,0
1582728230590,2180776,0.0,0,0
1582728230689,2180926,0.0,0,0
1582728230790,2180896,0.0,0,0
1582728230890,2180945,0.0,0,0
1582728230989,2181016,0.0,0,0
1582728231090,2181004,0.0,0,0
1582728231190,2181030,0.0,0,0
1582728231290,2181051,0.0,0,0
1582728231390,2181165,0.0,0,0
1582728231489,2180972,0.0,0,0
1582728231589,2180976,0.0,0,0
1582728231690,2181071,0.0,0,0
1582728231789,2180927,0.0,0,0
1582728231890,2180859,0.0,0,0
1582728231990,2180875,0.0,0,0
1582728232090,2180827,0.0,0,0
1582728232190,2180844,0.0,0,0
1582728232290,2180781,0.0,0,0
1582728232390,2180664,0.0,0,0
1582728232490,2180873,0.0,0,0
1582728232590,2180772,0.0,0,0
1582728232690,2180979,0.0,0,0
1582728232790,2180876,0.0,0,0
1582728232891,2180995,0.0,0,0
1582728232990,2180942,0.0,0,0
1582728233090,2180979,0.0,0,0
1582728233191,2180853,0.0,0,0
1582728233291,2180991,0.0,0,0
1582728233391,2181029,0.0,0,0
1582728233491,2181018,0.0,0,0
1582728233591,2180976,0.0,0,0
1582728233691,2180933,0.0,0,0
1582728233791,2180929,0.0,0,0
1582728233892,2180994,0.0,0,0
1582728233991,2181034,0.0,0,0
1582728234092,2180887,0.0,0,0
1582728234192,2181021,0.0,0,0
1582728234292,2180942,0.0,0,0
1582728234392,2180897,0.0,0,0
1582728234492,2180909,0.0,0,0
1582728234590,2180932,0.0,0,0
1582728234691,2180963,0.0,0,0
1582728234791,2180865,0.0,0,0
1582728234891,2180799,0.0,0,0
1582728234988,2180805,0.0,0,0
1582728235088,2180771,0.0,0,0
1582728235187,2180572,0.0,0,0
1582728235288,2180397,0.0,0,0
1582728235389,2180440,0.0,0,0
1582728235488,2180257,0.0,0,0
1582728235588,2180250,0.0,0,0
1582728235688,2180101,0.0,0,0
1582728235788,2180103,0.0,0,0
1582728235888,2179954,0.0,0,0
1582728235988,2179853,0.0,0,0
1582728236088,2179586,0.0,0,0
1582728236188,2179479,0.0,0,0
1582728236289,2179391,0.0,0,0
1582728236388,2179059,0.0,0,0
1582728236489,2178829,0.0,0,0
1582728236588,2178354,0.0,0,0
1582728236688,2178377,0.0,0,0
1582728236789,2178149,0.0,0,0
1582728236889,2178051,0.0,0,0
1582728236991,2177543,0.0,0,0
1582728237092,2177324,0.0,0,0
1582728237192,2177102,0.0,0,0
1582728237292,2176916,0.0,0,0
1582728237392,2176740,0.0,0,0
1582728237492,2176723,0.0,0,0
1582728237592,2176224,0.0,0,0
1582728237692,2176058,0.0,0,0
1582728237792,2175819,0.0,0,0
1582728237892,2175827,0.0,0,0
